timestamp,bvp
1689041931.4440057,15
1689041931.4940016,16
1689041931.5440028,39
1689041931.5940013,76
1689041931.6440046,91
1689041931.6940014,82
1689041931.7440004,71
1689041931.7800055,60
1689041931.827002,55
1689041931.8770018,53
1689041931.9270008,53
1689041931.9770012,48
1689041932.0270066,40
1689041932.0770023,34
1689041932.1270006,29
1689041932.1770003,27
1689041932.2270005,24
1689041932.2770042,30
1689041932.3270006,59
1689041932.3770041,87
1689041932.4270027,87
1689041932.4770002,78
1689041932.5270011,69
1689041932.5770001,61
1689041932.6270006,57
1689041932.6770024,54
1689041932.7270002,49
1689041932.7770038,41
1689041932.8100033,34
1689041932.8599987,29
1689041932.91,24
1689041932.9599998,21
1689041933.0100029,18
1689041933.0599992,25
1689041933.110003,54
1689041933.1609995,81
1689041933.2109985,81
1689041933.2609987,72
1689041933.3109999,64
1689041933.3609989,57
1689041933.411,53
1689041933.460998,50
1689041933.5109985,45
1689041933.5609984,39
1689041933.6110022,31
1689041933.6609988,25
1689041933.711002,21
1689041933.7609985,17
1689041933.7939985,15
1689041933.8440034,14
1689041933.8939977,15
1689041933.9440012,40
1689041933.9939976,73
1689041934.0439978,79
1689041934.0939982,70
1689041934.1440012,61
1689041934.1939988,53
1689041934.244001,49
1689041934.2939978,46
1689041934.344001,42
1689041934.393997,36
1689041934.4439967,27
1689041934.4940016,21
1689041934.5440006,16
1689041934.5940142,12
1689041934.6439953,9
1689041934.6939955,7
1689041934.744,4
1689041934.779996,6
1689041934.8290002,23
1689041934.8769975,59
1689041934.927,76
1689041934.9769976,66
1689041935.0269978,52
1689041935.0769997,41
1689041935.1269946,37
1689041935.1769955,37
1689041935.2269976,35
1689041935.2769952,28
1689041935.326999,20
1689041935.3769944,14
1689041935.4270115,10
1689041935.4769964,7
1689041935.526995,5
1689041935.576995,3
1689041935.626995,1
1689041935.677,1
1689041935.7265365,21
1689041935.776541,61
1689041935.8105414,81
1689041935.8605359,76
1689041935.9105382,60
1689041935.9605424,46
1689041936.0105362,40
1689041936.060535,40
1689041936.1105342,40
1689041936.161536,36
1689041936.2105339,28
1689041936.2615347,22
1689041936.310541,17
1689041936.3605351,15
1689041936.4105341,14
1689041936.4605339,13
1689041936.5105388,12
1689041936.5605345,27
1689041936.610535,69
1689041936.6605349,97
1689041936.7105343,91
1689041936.7605343,74
1689041936.7935345,59
1689041936.849538,53
1689041936.8995335,52
1689041936.9495337,54
1689041937.0075352,50
1689041937.0575392,40
1689041937.107534,33
1689041937.1575372,28
1689041937.208534,25
1689041937.2575338,23
1689041937.3075335,22
1689041937.3575332,21
1689041937.4075332,39
1689041937.4575372,78
1689041937.5075338,100
1689041937.5585372,93
1689041937.6075325,80
1689041937.6575363,69
1689041937.7075336,62
1689041937.7575338,60
1689041937.7905347,57
1689041937.840532,54
1689041937.8905363,46
1689041937.940532,34
1689041937.9905357,27
1689041938.0405326,21
1689041938.090532,17
1689041938.1405597,13
1689041938.1905627,9
1689041938.2405624,6
1689041938.292564,19
1689041938.3425589,59
1689041938.3905623,86
1689041938.4405587,81
1689041938.4905622,67
1689041938.5405633,56
1689041938.5905619,50
1689041938.641558,51
1689041938.6915574,50
1689041938.741557,43
1689041938.7795618,35
1689041938.8275592,28
1689041938.8775566,20
1689041938.927559,14
1689041938.9775574,11
1689041939.0275612,8
1689041939.0775573,5
1689041939.1275566,2
1689041939.177557,18
1689041939.2275584,60
1689041939.2775612,86
1689041939.3275607,78
1689041939.3775568,61
1689041939.4275575,47
1689041939.4775565,42
1689041939.527564,45
1689041939.5775561,45
1689041939.6275566,38
1689041939.6775572,26
1689041939.72756,15
1689041939.7775552,7
1689041939.8155575,2
1689041939.8635607,0
1689041939.9135559,0
1689041939.964555,0
1689041940.024555,0
1689041940.0745559,17
1689041940.1245596,71
1689041940.174555,86
1689041940.2245572,74
1689041940.2745552,55
1689041940.32456,41
1689041940.375555,37
1689041940.424562,39
1689041940.4745545,38
1689041940.5245566,30
1689041940.5745554,21
1689041940.624554,14
1689041940.6745555,9
1689041940.7245543,6
1689041940.7745547,5
1689041940.8125582,5
1689041940.8605535,18
1689041940.9105556,58
1689041940.9605582,90
1689041941.0105534,86
1689041941.0605578,69
1689041941.1105537,52
1689041941.1605551,44
1689041941.210554,47
1689041941.2605538,49
1689041941.310554,43
1689041941.3605528,34
1689041941.4105546,26
1689041941.4605548,20
1689041941.5105531,18
1689041941.5605571,17
1689041941.610553,19
1689041941.6605546,47
1689041941.7105541,89
1689041941.7605522,100
1689041941.7945526,87
1689041941.8445528,77
1689041941.8945518,66
1689041941.9445524,62
1689041941.9953043,63
1689041942.0453036,60
1689041942.0953038,52
1689041942.145299,42
1689041942.195298,34
1689041942.2452986,28
1689041942.2953029,24
1689041942.3453789,22
1689041942.3953831,21
1689041942.445383,43
1689041942.495382,81
1689041942.545378,94
1689041942.595382,86
1689041942.645379,76
1689041942.6953785,70
1689041942.7453778,64
1689041942.7813778,61
1689041942.8283765,59
1689041942.8783767,53
1689041942.9283814,44
1689041942.9793787,38
1689041943.0283775,32
1689041943.0783772,29
1689041943.1283772,26
1689041943.1783774,24
1689041943.2283807,28
1689041943.2783806,53
1689041943.3283806,79
1689041943.3783777,80
1689041943.4283764,71
1689041943.4783766,63
1689041943.5283756,57
1689041943.5783803,53
1689041943.6283765,51
1689041943.67838,46
1689041943.72838,39
1689041943.778388,31
1689041943.8113759,26
1689041943.861376,23
1689041943.9113793,20
1689041943.961375,17
1689041944.0113766,15
1689041944.0613763,12
1689041944.111376,15
1689041944.1613796,43
1689041944.2113743,72
1689041944.261375,72
1689041944.3113792,61
1689041944.3613758,51
1689041944.4113755,46
1689041944.4613767,46
1689041944.5113788,46
1689041944.5613785,41
1689041944.6113746,32
1689041944.6613746,21
1689041944.7113786,15
1689041944.7613745,9
1689041944.795381,6
1689041944.8503742,5
1689041944.900375,5
1689041944.9503758,3
1689041945.0093794,5
1689041945.061374,40
1689041945.111373,75
1689041945.1613736,76
1689041945.2113748,62
1689041945.2613788,47
1689041945.3113754,41
1689041945.361378,43
1689041945.4113722,44
1689041945.4613733,38
1689041945.5113723,27
1689041945.5613737,17
1689041945.6113734,11
1689041945.6613774,7
1689041945.7113783,5
1689041945.7613719,2
1689041945.8123763,5
1689041945.8623724,39
1689041945.912372,73
1689041945.9623744,76
1689041946.0123715,61
1689041946.0623763,45
1689041946.1123722,36
1689041946.1623719,37
1689041946.2123759,39
1689041946.2623723,34
1689041946.3123755,25
1689041946.3623722,16
1689041946.4123707,9
1689041946.4623754,5
1689041946.5123713,3
1689041946.5623715,2
1689041946.6123712,18
1689041946.6623702,60
1689041946.7123747,90
1689041946.7623718,85
1689041946.7953715,69
1689041946.8453715,58
1689041946.8953745,45
1689041946.945371,42
1689041946.9953718,41
1689041947.0453763,37
1689041947.0953705,28
1689041947.1453748,18
1689041947.195371,11
1689041947.2453742,6
1689041947.29537,3
1689041947.345369,11
1689041947.3953707,51
1689041947.445374,94
1689041947.4953701,98
1689041947.5453706,62
1689041947.595371,54
1689041947.6453714,47
1689041947.695371,45
1689041947.7453685,45
1689041947.7823684,44
1689041947.8303692,41
1689041947.8783731,38
1689041947.9283698,34
1689041947.9783714,33
1689041948.0283742,32
1689041948.0783727,31
1689041948.1283724,35
1689041948.1783693,51
1689041948.2283697,66
1689041948.2783687,66
1689041948.3283706,60
1689041948.3783686,55
1689041948.4283674,51
1689041948.4783685,49
1689041948.528371,48
1689041948.5783718,45
1689041948.6283681,40
1689041948.678367,36
1689041948.7283683,33
1689041948.7783718,31
1689041948.8123698,30
1689041948.8623667,29
1689041948.9123676,27
1689041948.962368,30
1689041949.0123713,45
1689041949.0623674,59
1689041949.112371,58
1689041949.1623673,54
1689041949.2123709,50
1689041949.2623708,47
1689041949.3123672,45
1689041949.3623667,43
1689041949.412368,41
1689041949.4623668,38
1689041949.512373,34
1689041949.5623674,32
1689041949.612372,31
1689041949.6623666,29
1689041949.7123702,28
1689041949.7623656,27
1689041949.7953682,26
1689041949.8453698,29
1689041949.8953674,44
1689041949.9453657,59
1689041949.995367,59
1689041950.045372,54
1689041950.0953739,50
1689041950.145369,46
1689041950.1953642,44
1689041950.2453692,42
1689041950.2953653,40
1689041950.345365,38
1689041950.3953657,35
1689041950.4453695,32
1689041950.4953651,30
1689041950.5453644,28
1689041950.595366,27
1689041950.6453686,26
1689041950.6953642,25
1689041950.7453692,35
1689041950.7813683,52
1689041950.8293695,58
1689041950.8793683,56
1689041950.9293706,50
1689041950.979363,45
1689041951.029365,42
1689041951.0793638,42
1689041951.1293643,42
1689041951.1793644,41
1689041951.2293675,37
1689041951.279363,33
1689041951.329363,30
1689041951.3793635,29
1689041951.4293642,27
1689041951.4793634,27
1689041951.5293622,26
1689041951.5793643,29
1689041951.6293654,45
1689041951.6793668,59
1689041951.729363,58
1689041951.7793686,51
1689041951.8173666,44
1689041951.865368,41
1689041951.9153624,40
1689041951.9653628,41
1689041952.0263617,40
1689041952.0763617,36
1689041952.1263685,31
1689041952.176366,27
1689041952.2263634,24
1689041952.276362,22
1689041952.3263621,21
1689041952.3763614,20
1689041952.4263608,24
1689041952.4763618,45
1689041952.5263655,58
1689041952.5763657,56
1689041952.6263652,47
1689041952.6763604,40
1689041952.7263615,36
1689041952.7763612,37
1689041952.809361,39
1689041952.8593624,38
1689041952.9093647,35
1689041952.9593647,31
1689041953.0093615,28
1689041953.0593662,26
1689041953.1093605,25
1689041953.1593611,25
1689041953.2093601,36
1689041953.2593606,54
1689041953.3093617,60
1689041953.3593605,53
1689041953.409364,45
1689041953.4593637,40
1689041953.5093596,38
1689041953.5593653,40
1689041953.6093595,40
1689041953.6593611,37
1689041953.7093637,34
1689041953.7593598,31
1689041953.793363,29
1689041953.843359,27
1689041953.8943634,29
1689041953.9443636,43
1689041953.994365,59
1689041954.0433586,61
1689041954.093363,54
1689041954.143359,47
1689041954.1933627,43
1689041954.2433596,43
1689041954.2933586,44
1689041954.3433592,42
1689041954.3933623,39
1689041954.4433577,36
1689041954.4933586,34
1689041954.543362,33
1689041954.5933619,34
1689041954.644358,46
1689041954.693357,61
1689041954.7433581,64
1689041954.7823622,60
1689041954.8263617,56
1689041954.8763568,53
1689041954.9263577,51
1689041954.9763575,50
1689041955.0263612,48
1689041955.0763583,45
1689041955.1263576,42
1689041955.176357,40
1689041955.2263608,40
1689041955.2763572,39
1689041955.3263566,41
1689041955.3763566,51
1689041955.4263582,61
1689041955.4763565,60
1689041955.5263565,73
1689041955.5763574,66
1689041955.6263602,61
1689041955.6763616,57
1689041955.7263565,55
1689041955.776355,50
1689041955.8103557,43
1689041955.8603563,40
1689041955.9103558,35
1689041955.9603596,33
1689041956.0103555,31
1689041956.06036,30
1689041956.1103563,41
1689041956.1603594,63
1689041956.2103543,72
1689041956.260359,66
1689041956.310355,59
1689041956.3603554,52
1689041956.4103587,47
1689041956.46036,45
1689041956.5103586,42
1689041956.5603616,38
1689041956.6103559,34
1689041956.6603584,29
1689041956.7103548,25
1689041956.760355,23
1689041956.7925088,20
1689041956.8425112,19
1689041956.8925064,17
1689041956.9425776,18
1689041956.992567,36
1689041957.042508,57
1689041957.0925074,59
1689041957.142507,49
1689041957.1925068,40
1689041957.2425106,34
1689041957.292507,31
1689041957.3425066,31
1689041957.3925056,30
1689041957.4425068,25
1689041957.4925103,20
1689041957.542508,17
1689041957.5925064,16
1689041957.642507,15
1689041957.6925097,15
1689041957.7425098,15
1689041957.7825072,14
1689041957.8305097,20
1689041957.878506,46
1689041957.9285052,59
1689041957.978506,53
1689041958.0285094,45
1689041958.078509,39
1689041958.1285095,39
1689041958.1785052,43
1689041958.2285104,44
1689041958.2785053,40
1689041958.3285046,37
1689041958.378505,36
1689041958.428506,35
1689041958.4785082,35
1689041958.5285065,33
1689041958.578504,32
1689041958.6285033,38
1689041958.6785045,55
1689041958.7285044,66
1689041958.7795079,61
1689041958.8125033,53
1689041958.8625047,49
1689041958.912504,45
1689041958.962503,43
1689041959.0125036,42
1689041959.0625026,40
1689041959.1125047,35
1689041959.1625051,31
1689041959.2125075,28
1689041959.262507,26
1689041959.3135047,24
1689041959.362507,22
1689041959.4125044,21
1689041959.463503,20
1689041959.5125074,34
1689041959.5625033,54
1689041959.6125038,54
1689041959.6625066,46
1689041959.7135024,40
1689041959.7625113,35
1689041959.795504,34
1689041959.845503,34
1689041959.895503,33
1689041959.945501,29
1689041959.9955075,24
1689041960.0455027,21
1689041960.0955043,19
1689041960.1455019,18
1689041960.1955028,18
1689041960.2455013,17
1689041960.2955039,15
1689041960.3455055,23
1689041960.3955007,47
1689041960.4455032,63
1689041960.5095017,58
1689041960.5595016,47
1689041960.609505,41
1689041960.6595013,40
1689041960.7095048,42
1689041960.759501,43
1689041960.7925067,40
1689041960.8424995,37
1689041960.8924997,34
1689041960.9425006,34
1689041961.0025017,36
1689041961.0515041,37
1689041961.1015017,35
1689041961.1515038,40
1689041961.2014995,62
1689041961.2515,71
1689041961.3015037,67
1689041961.3515036,60
1689041961.4015,55
1689041961.4515035,51
1689041961.5015008,49
1689041961.5515034,48
1689041961.6015034,43
1689041961.6514993,38
1689041961.701499,33
1689041961.7515,29
1689041961.7845027,26
1689041961.8405037,23
1689041961.890499,20
1689041961.9405036,16
1689041961.993499,17
1689041962.0444992,37
1689041962.092499,60
1689041962.1424975,61
1689041962.1924975,52
1689041962.2425041,44
1689041962.292498,39
1689041962.3425028,37
1689041962.393498,37
1689041962.4425042,35
1689041962.4924982,29
1689041962.5425029,24
1689041962.5934994,19
1689041962.6425016,17
1689041962.6924975,16
1689041962.743498,16
1689041962.7815015,15
1689041962.8264973,17
1689041962.876502,40
1689041962.9264977,63
1689041962.9764974,64
1689041963.0264976,56
1689041963.0764973,49
1689041963.1264973,46
1689041963.1764963,48
1689041963.2265005,50
1689041963.2764957,48
1689041963.3265004,44
1689041963.376501,40
1689041963.4274971,39
1689041963.4765003,36
1689041963.5264962,34
1689041963.5765002,32
1689041963.6264973,34
1689041963.6764967,52
1689041963.7264957,67
1689041963.7764962,67
1689041963.8144946,59
1689041963.8624954,52
1689041963.9124963,45
1689041963.9625,41
1689041964.012502,40
1689041964.062499,39
1689041964.1124942,33
1689041964.1624954,27
1689041964.2124991,22
1689041964.263495,18
1689041964.3124986,15
1689041964.362494,12
1689041964.4124947,11
1689041964.462499,26
1689041964.5124986,51
1689041964.5624945,60
1689041964.6124947,52
1689041964.6624947,43
1689041964.713498,37
1689041964.7634933,35
1689041964.795498,37
1689041964.8454947,38
1689041964.8964949,37
1689041964.945494,32
1689041964.9954937,28
1689041965.0454943,27
1689041965.0954938,27
1689041965.1454935,28
1689041965.1964936,32
1689041965.2454934,49
1689041965.2964935,69
1689041965.3464954,72
1689041965.395493,66
1689041965.4454923,63
1689041965.4954932,60
1689041965.545493,59
1689041965.595497,59
1689041965.645497,58
1689041965.6954918,53
1689041965.7454927,47
1689041965.7824972,40
1689041965.8324924,38
1689041965.8824937,36
1689041965.9334922,35
1689041965.994045,41
1689041966.0440469,59
1689041966.094045,65
1689041966.1440449,58
1689041966.1940413,50
1689041966.244042,45
1689041966.2940462,42
1689041966.3440409,43
1689041966.3940415,43
1689041966.444041,40
1689041966.4940393,33
1689041966.544044,25
1689041966.5940406,20
1689041966.6440399,17
1689041966.6940436,15
1689041966.7460399,20
1689041966.7830436,40
1689041966.8270404,52
1689041966.8770385,52
1689041966.9273093,43
1689041966.9769568,35
1689041967.0269523,30
1689041967.0769536,30
1689041967.1269531,32
1689041967.176953,31
1689041967.2269526,26
1689041967.2769566,21
1689041967.326954,17
1689041967.3769567,15
1689041967.4269516,14
1689041967.504952,28
1689041967.5549562,61
1689041967.604952,58
1689041967.6549559,49
1689041967.7049518,41
1689041967.7549558,39
1689041967.7879562,42
1689041967.8379521,45
1689041967.8879519,47
1689041967.9379525,45
1689041967.993952,40
1689041968.0439525,39
1689041968.0939531,39
1689041968.1439514,38
1689041968.1939511,46
1689041968.2439513,64
1689041968.2939548,71
1689041968.3439507,65
1689041968.3939548,57
1689041968.4439554,49
1689041968.4939513,42
1689041968.5439496,39
1689041968.5939543,38
1689041968.6439502,34
1689041968.6939516,28
1689041968.7439501,22
1689041968.78295,17
1689041968.826954,14
1689041968.8769538,10
1689041968.9269505,8
1689041968.97695,12
1689041969.0269535,34
1689041969.0769498,56
1689041969.1269495,55
1689041969.1769495,46
1689041969.2269514,40
1689041969.2769501,35
1689041969.3269496,32
1689041969.3769531,34
1689041969.4269533,33
1689041969.4769487,29
1689041969.5269487,25
1689041969.5769486,22
1689041969.6269524,21
1689041969.6769524,21
1689041969.7269526,23
1689041969.7769496,33
1689041969.8109496,56
1689041969.8609483,69
1689041969.9109523,72
1689041969.9609525,66
1689041970.0109487,60
1689041970.060952,55
1689041970.1109533,52
1689041970.1609483,50
1689041970.2109485,47
1689041970.2609515,42
1689041970.3109467,38
1689041970.3609512,34
1689041970.4109488,31
1689041970.4609513,30
1689041970.5109513,28
1689041970.5609515,25
1689041970.610947,30
1689041970.660951,46
1689041970.7109468,57
1689041970.7609482,51
1689041970.7939484,42
1689041970.849947,38
1689041970.8999457,33
1689041970.9499466,30
1689041971.0109463,31
1689041971.0609462,30
1689041971.1109478,26
1689041971.1609502,21
1689041971.2109458,18
1689041971.260946,16
1689041971.3109498,15
1689041971.3609462,15
1689041971.4109504,15
1689041971.4609509,22
1689041971.5109458,47
1689041971.5609455,67
1689041971.6109495,64
1689041971.6609492,56
1689041971.7109494,50
1689041971.760947,48
1689041971.793946,50
1689041971.8439453,51
1689041971.893944,50
1689041971.9439492,45
1689041971.9949455,41
1689041972.0439487,40
1689041972.0939484,39
1689041972.143953,38
1689041972.1939456,36
1689041972.2439446,35
1689041972.2949436,47
1689041972.3439484,67
1689041972.393944,72
1689041972.443945,64
1689041972.493948,56
1689041972.5439477,49
1689041972.5939448,43
1689041972.6439438,40
1689041972.6939437,38
1689041972.7439435,32
1689041972.7829466,25
1689041972.827953,21
1689041972.8779445,16
1689041972.9279442,13
1689041972.9779422,12
1689041973.0279438,11
1689041973.0779474,11
1689041973.1279433,26
1689041973.1779468,58
1689041973.227948,67
1689041973.2779467,60
1689041973.3279464,50
1689041973.3779426,44
1689041973.4279463,40
1689041973.4779441,40
1689041973.5279422,42
1689041973.5779417,39
1689041973.6279411,33
1689041973.6779459,29
1689041973.7279441,26
1689041973.7779424,27
1689041973.810942,30
1689041973.8609416,32
1689041973.910946,43
1689041973.9609416,68
1689041974.0109456,85
1689041974.0609415,84
1689041974.1109452,76
1689041974.1609452,68
1689041974.2109427,62
1689041974.260941,59
1689041974.3109398,57
1689041974.360942,52
1689041974.4109447,45
1689041974.460946,40
1689041974.5109446,35
1689041974.5609412,30
1689041974.610945,26
1689041974.6609406,21
1689041974.710944,20
1689041974.7609403,39
1689041974.7959404,61
1689041974.8439398,64
1689041974.8939466,56
1689041974.9439397,46
1689041974.993939,39
1689041975.043944,34
1689041975.0939398,34
1689041975.143941,34
1689041975.1939394,31
1689041975.2439437,24
1689041975.2939405,18
1689041975.3439384,14
1689041975.3939404,13
1689041975.443938,12
1689041975.494939,12
1689041975.5469427,29
1689041975.5939393,67
1689041975.6439402,71
1689041975.6939387,62
1689041975.7439425,53
1689041975.7829428,47
1689041975.8279376,46
1689041975.877942,48
1689041975.9279382,49
1689041975.9779422,46
1689041976.0279384,43
1689041976.0779383,42
1689041976.1279376,42
1689041976.1779416,42
1689041976.2279377,41
1689041976.2779403,51
1689041976.3279376,71
1689041976.3779411,80
1689041976.4279418,73
1689041976.4779441,65
1689041976.5279415,58
1689041976.577941,53
1689041976.6279378,50
1689041976.677691,46
1689041976.7275352,39
1689041976.778144,29
1689041976.8110845,20
1689041976.8610792,15
1689041976.9110625,11
1689041976.9610581,7
1689041977.0110626,5
1689041977.0610583,6
1689041977.1110625,29
1689041977.161058,56
1689041977.2110622,60
1689041977.2610579,50
1689041977.310563,40
1689041977.3609366,34
1689041977.4109404,32
1689041977.4609363,34
1689041977.5109353,33
1689041977.5609362,28
1689041977.6109362,22
1689041977.6609356,17
1689041977.7109401,15
1689041977.7609365,14
1689041977.7949352,14
1689041977.8449354,17
1689041977.8969355,39
1689041977.9459357,67
1689041977.9949396,74
1689041978.0449345,66
1689041978.0951653,59
1689041978.144777,53
1689041978.1947727,52
1689041978.244773,54
1689041978.2947724,53
1689041978.344772,49
1689041978.3947768,46
1689041978.4447768,44
1689041978.508772,42
1689041978.5587764,39
1689041978.6087716,38
1689041978.658778,51
1689041978.708776,71
1689041978.7587788,74
1689041978.791776,64
1689041978.8467774,55
1689041978.8967874,47
1689041978.9464478,41
1689041978.9973938,40
1689041979.0467565,38
1689041979.0966046,32
1689041979.14782,23
1689041979.1978245,15
1689041979.2478263,8
1689041979.2978203,5
1689041979.3478198,3
1689041979.39782,3
1689041979.4478197,22
1689041979.49782,54
1689041979.5474577,67
1689041979.5983894,60
1689041979.6474998,48
1689041979.6977198,40
1689041979.7475786,36
1689041979.7837527,39
1689041979.8307467,40
1689041979.8807468,37
1689041979.9307463,31
1689041979.980746,26
1689041980.0304904,25
1689041980.0804558,29
1689041980.1311538,30
1689041980.1812742,35
1689041980.2314162,56
1689041980.281412,77
1689041980.3314106,79
1689041980.3803632,73
1689041980.4313245,66
1689041980.4811363,60
1689041980.5304227,58
1689041980.5804834,56
1689041980.631347,52
1689041980.6810553,46
1689041980.7305589,40
1689041980.7813363,36
1689041980.8143902,32
1689041980.864395,28
1689041980.9143949,22
1689041980.96439,24
1689041981.014395,44
1689041981.0643904,63
1689041981.1143901,60
1689041981.16345,49
1689041981.213462,39
1689041981.2644126,32
1689041981.3138764,31
1689041981.3641331,33
1689041981.4135556,30
1689041981.4636178,23
1689041981.5135598,16
1689041981.563559,10
1689041981.6135547,8
1689041981.6635547,7
1689041981.7135563,7
1689041981.7635548,20
1689041981.7975547,50
1689041981.8475552,65
1689041981.8975542,64
1689041981.9475586,52
1689041981.9975586,40
1689041982.0475538,34
1689041982.0975544,36
1689041982.1475537,40
1689041982.1975582,38
1689041982.2475584,32
1689041982.2976208,26
1689041982.3475542,23
1689041982.3975577,23
1689041982.4475534,27
1689041982.497553,37
1689041982.547553,62
1689041982.5975525,87
1689041982.6479597,89
1689041982.697575,80
1689041982.74802,71
1689041982.7840042,64
1689041982.8327315,61
1689041982.8808627,59
1689041982.9308627,55
1689041982.9808602,47
1689041983.0308578,39
1689041983.0808582,30
1689041983.130859,23
1689041983.1809165,18
1689041983.230858,14
1689041983.280862,13
1689041983.3308635,31
1689041983.380857,55
1689041983.4308622,58
1689041983.480857,47
1689041983.5309255,37
1689041983.5808568,29
1689041983.6308568,28
1689041983.6807885,32
1689041983.7310772,32
1689041983.7810829,26
1689041983.8147182,18
1689041983.8650994,14
1689041983.9144678,9
1689041983.9648306,7
1689041984.0153263,5
1689041984.0651572,16
1689041984.1151574,50
1689041984.165157,74
1689041984.2151568,69
1689041984.2651615,56
1689041984.3151574,45
1689041984.365162,42
1689041984.4151564,46
1689041984.4651618,49
1689041984.5151572,46
1689041984.5651567,40
1689041984.6151562,36
1689041984.6651607,36
1689041984.715161,40
1689041984.765156,40
1689041984.7981608,41
1689041984.8481562,52
1689041984.8981607,76
1689041984.948156,85
1689041984.9981601,77
1689041985.048156,68
1689041985.0981553,59
1689041985.1481552,52
1689041985.19816,49
1689041985.2481558,44
1689041985.2981553,37
1689041985.3481572,27
1689041985.398155,17
1689041985.448155,8
1689041985.498155,2
1689041985.5473964,0
1689041985.598055,0
1689041985.6474693,7
1689041985.697627,42
1689041985.7479959,69
1689041985.7836475,64
1689041985.8308294,55
1689041985.88083,43
1689041985.9308293,35
1689041985.9808915,33
1689041986.030834,36
1689041986.0808291,35
1689041986.1310434,28
1689041986.180577,20
1689041986.2315857,13
1689041986.2806697,10
1689041986.330782,8
1689041986.380782,7
1689041986.4307811,26
1689041986.480781,64
1689041986.5306253,81
1689041986.5808113,80
1689041986.6308157,68
1689041986.6808121,57
1689041986.7308118,51
1689041986.780811,54
1689041986.8148155,56
1689041986.864407,54
1689041986.9149816,49
1689041986.964854,45
1689041987.0148544,42
1689041987.0650022,40
1689041987.1150014,39
1689041987.1650062,40
1689041987.2150059,58
1689041987.265006,81
1689041987.315002,81
1689041987.3650012,69
1689041987.4149911,57
1689041987.4651651,47
1689041987.529151,39
1689041987.5788136,37
1689041987.6285007,32
1689041987.6787016,23
1689041987.72933,13
1689041987.7785861,5
1689041987.811922,0
1689041987.8622386,0
1689041987.9118545,0
1689041987.9623327,0
1689041988.0117548,22
1689041988.0616734,61
1689041988.11168,75
1689041988.1619983,66
1689041988.2124336,53
1689041988.2621994,42
1689041988.3115258,39
1689041988.3618987,41
1689041988.4120173,41
1689041988.462291,35
1689041988.5122857,26
1689041988.5622857,19
1689041988.6122851,16
1689041988.662286,15
1689041988.7123466,16
1689041988.7622852,35
1689041988.7951248,69
1689041988.8465798,85
1689041988.8956897,87
1689041988.9457777,82
1689041988.9947672,75
1689041989.0457735,67
1689041989.0961187,64
1689041989.146085,63
1689041989.196021,58
1689041989.2460275,50
1689041989.2955043,44
1689041989.3462486,40
1689041989.3961315,37
1689041989.4459949,35
1689041989.4971025,37
1689041989.5464158,53
1689041989.5966861,71
1689041989.645525,70
1689041989.696362,58
1689041989.7457447,47
1689041989.7835796,39
1689041989.8287303,35
1689041989.8794153,32
1689041989.9294138,30
1689041989.9794147,23
1689041990.0294132,14
1689041990.078723,6
1689041990.128497,2
1689041990.178497,0
1689041990.2284966,0
1689041990.2785006,0
1689041990.3284962,26
1689041990.378496,61
1689041990.4284968,71
1689041990.4785695,63
1689041990.5285003,51
1689041990.5785,40
1689041990.6284957,38
1689041990.6785002,40
1689041990.7284963,40
1689041990.7785335,34
1689041990.811538,26
1689041990.8615334,22
1689041990.9115334,19
1689041990.961533,18
1689041991.0115862,17
1689041991.0614681,34
1689041991.1114676,65
1689041991.161472,81
1689041991.2114716,76
1689041991.2624671,67
1689041991.3117332,60
1689041991.3617284,59
1689041991.4117286,62
1689041991.461728,60
1689041991.5117292,53
1689041991.561728,46
1689041991.6120594,41
1689041991.6616452,39
1689041991.7113898,37
1689041991.7624013,37
1689041991.7967703,50
1689041991.8505182,65
1689041991.900455,68
1689041991.9514487,58
1689041992.0094538,48
1689041992.0594485,40
1689041992.1094487,36
1689041992.1604497,35
1689041992.209453,31
1689041992.259449,24
1689041992.3094528,17
1689041992.359453,12
1689041992.4094486,9
1689041992.4594486,8
1689041992.5102944,9
1689041992.5596092,27
1689041992.6100945,55
1689041992.6601038,63
1689041992.7096217,55
1689041992.7600567,44
1689041992.793056,37
1689041992.8430572,35
1689041992.8930602,39
1689041992.94306,40
1689041992.996064,35
1689041993.0460548,28
1689041993.0960586,22
1689041993.146059,19
1689041993.1960595,17
1689041993.247055,19
1689041993.3000553,39
1689041993.3488047,68
1689041993.3985538,79
1689041993.4484499,74
1689041993.49857,67
1689041993.548564,62
1689041993.5985634,61
1689041993.6487055,62
1689041993.698418,58
1689041993.749417,51
1689041993.7844188,45
1689041993.8319585,42
1689041993.8822405,40
1689041993.93235,38
1689041993.982051,39
1689041994.0320373,53
1689041994.0822084,69
1689041994.1322265,69
1689041994.181708,59
1689041994.2317023,50
1689041994.2817607,41
1689041994.3317065,37
1689041994.381706,35
1689041994.431701,29
1689041994.4822016,21
1689041994.5313873,14
1689041994.5823908,9
1689041994.6323915,7
1689041994.682388,6
1689041994.7323909,6
1689041994.7813919,22
1689041994.8153856,51
1689041994.8643854,64
1689041994.9144957,62
1689041994.9644961,51
1689041995.0145001,40
1689041995.064496,35
1689041995.1154954,37
1689041995.1644998,39
1689041995.2145,35
1689041995.265495,28
1689041995.3145273,22
1689041995.3646758,19
1689041995.4150422,18
1689041995.4650471,19
1689041995.5150418,32
1689041995.5651717,60
1689041995.6147943,79
1689041995.6650107,77
1689041995.7144172,68
1689041995.7644582,59
1689041995.7984576,56
1689041995.848464,57
1689041995.898462,58
1689041995.9484575,53
1689041995.9984617,46
1689041996.048462,40
1689041996.0984576,37
1689041996.1484573,35
1689041996.198458,33
1689041996.2484572,38
1689041996.2994573,55
1689041996.3484564,68
1689041996.3984613,64
1689041996.448461,54
1689041996.5274565,39
1689041996.5764565,33
1689041996.6274571,32
1689041996.6764557,29
1689041996.7273092,24
1689041996.776458,17
1689041996.8102286,12
1689041996.8596034,9
1689041996.910111,8
1689041996.9599166,7
1689041997.013187,8
1689041997.06319,26
1689041997.1131904,54
1689041997.1631866,64
1689041997.213185,55
1689041997.2631896,44
1689041997.3131907,36
1689041997.363185,35
1689041997.413185,39
1689041997.4631853,37
1689041997.5131898,31
1689041997.5631857,24
1689041997.6131842,20
1689041997.6631887,21
1689041997.7131894,24
1689041997.7631838,27
1689041997.7990642,40
1689041997.8467917,57
1689041997.8971033,79
1689041997.9460983,80
1689041997.9960983,72
1689041998.0457513,64
1689041998.095875,57
1689041998.1458752,54
1689041998.1958754,53
1689041998.245876,47
1689041998.295941,40
1689041998.3458116,34
1689041998.3956323,29
1689041998.4461982,25
1689041998.4957175,20
1689041998.5454907,17
1689041998.598467,30
1689041998.6474538,53
1689041998.6954532,62
1689041998.7454505,53
1689041998.7844532,41
1689041998.829521,36
1689041998.8804486,31
1689041998.9294527,31
1689041998.979448,32
1689041999.0294528,28
1689041999.079448,20
1689041999.1304476,13
1689041999.1794477,9
1689041999.2294478,8
1689041999.2796574,7
1689041999.3303795,9
1689041999.379931,32
1689041999.4299345,62
1689041999.479935,67
1689041999.5299299,56
1689041999.5799298,44
1689041999.6299293,37
1689041999.6799314,39
1689041999.7299337,44
1689041999.77993,44
1689041999.8129294,40
1689041999.8629339,36
1689041999.9129295,33
1689041999.962929,32
1689042000.0129294,33
1689042000.0629332,37
1689042000.1129334,54
1689042000.1629286,77
1689042000.2129285,80
1689042000.262991,71
1689042000.3129287,62
1689042000.3629293,55
1689042000.4129286,51
1689042000.4629278,49
1689042000.5269325,40
1689042000.5769324,32
1689042000.6269321,22
1689042000.6769285,14
1689042000.7265084,8
1689042000.7770605,3
1689042000.810062,0
1689042000.8595283,10
1689042000.9098282,41
1689042000.959507,61
1689042001.0129356,56
1689042001.062514,44
1689042001.1124763,34
1689042001.162835,29
1689042001.2128882,33
1689042001.2627547,35
1689042001.3126435,30
1689042001.3628676,22
1689042001.4130888,16
1689042001.4626653,12
1689042001.5132713,10
1689042001.563222,10
1689042001.612965,27
1689042001.6627462,59
1689042001.712856,74
1689042001.7632916,65
1689042001.7972887,52
1689042001.8517876,44
1689042001.9020607,43
1689042001.952065,50
1689042002.0130603,54
1689042002.0628319,51
1689042002.1133595,48
1689042002.1624303,45
1689042002.2125123,42
1689042002.2637098,40
1689042002.3129544,42
1689042002.3632257,59
1689042002.4126587,78
1689042002.4628754,79
1689042002.5128763,69
1689042002.562881,59
1689042002.6128757,50
1689042002.6628795,46
1689042002.712875,44
1689042002.7628756,39
1689042002.7968805,29
1689042002.8518753,20
1689042002.9018748,11
1689042002.9518745,6
1689042003.012875,4
1689042003.062875,4
1689042003.1128788,24
1689042003.1628754,55
1689042003.212874,66
1689042003.2628741,57
1689042003.3128748,45
1689042003.3626266,37
1689042003.4126213,36
1689042003.4626906,40
1689042003.527296,37
1689042003.5768826,29
1689042003.6268387,21
1689042003.6769986,17
1689042003.7270026,16
1689042003.7769997,19
1689042003.8199983,40
1689042003.8689983,64
1689042003.9190912,79
1689042003.9693007,74
1689042004.0299761,63
1689042004.079974,57
1689042004.1299741,57
1689042004.1799736,59
1689042004.2299738,55
1689042004.2799783,48
1689042004.329974,41
1689042004.379524,39
1689042004.4295192,37
1689042004.479519,33
1689042004.530283,36
1689042004.5803037,54
1689042004.6302998,70
1689042004.680299,66
1689042004.7296965,55
1689042004.7799633,43
1689042004.813,34
1689042004.862963,32
1689042004.9129632,32
1689042004.963065,30
1689042005.0129628,24
1689042005.0629585,17
1689042005.1129627,11
1689042005.162958,8
1689042005.2129636,6
1689042005.2629578,8
1689042005.3127396,28
1689042005.3627646,58
1689042005.4127693,70
1689042005.4627655,61
1689042005.5128138,49
1689042005.5630376,40
1689042005.6131349,38
1689042005.6631305,40
1689042005.7132087,39
1689042005.763204,32
1689042005.796423,25
1689042005.8464234,23
1689042005.8964226,22
1689042005.9464269,23
1689042005.9964223,29
1689042006.0464263,51
1689042006.0964217,75
1689042006.1464217,78
1689042006.1964214,70
1689042006.247237,63
1689042006.297104,60
1689042006.3471003,60
1689042006.3971047,58
1689042006.4471033,52
1689042006.4970984,45
1689042006.5470989,41
1689042006.5970986,39
1689042006.6470983,35
1689042006.6971033,32
1689042006.7470982,38
1689042006.7860987,57
1689042006.8330984,66
1689042006.883104,64
1689042006.9330986,53
1689042006.98316,44
1689042007.0331028,40
1689042007.0830977,39
1689042007.1330974,36
1689042007.1830976,30
1689042007.2330973,21
1689042007.2831028,15
1689042007.333098,13
1689042007.3831027,13
1689042007.4330974,13
1689042007.4831014,15
1689042007.533098,36
1689042007.5831017,60
1689042007.6331036,64
1689042007.6830971,54
1689042007.7330976,42
1689042007.7840972,35
1689042007.816097,37
1689042007.8661187,39
1689042007.9156337,38
1689042007.9656398,32
1689042008.015568,26
1689042008.0655634,23
1689042008.1155648,23
1689042008.1655638,24
1689042008.215563,30
1689042008.2655635,51
1689042008.3155637,70
1689042008.3655674,70
1689042008.415563,63
1689042008.4665627,57
1689042008.5165622,55
1689042008.5670059,57
1689042008.617124,55
1689042008.6671243,50
1689042008.717119,43
1689042008.7671192,40
1689042008.7998838,37
1689042008.8552392,35
1689042008.9041047,33
1689042008.9545236,37
1689042009.0137396,61
1689042009.0634248,64
1689042009.113598,55
1689042009.163593,45
1689042009.213731,38
1689042009.263894,34
1689042009.3139403,34
1689042009.3642542,32
1689042009.4133666,27
1689042009.4642358,21
1689042009.5142279,17
1689042009.5642323,16
1689042009.6142323,15
1689042009.664288,21
1689042009.714232,42
1689042009.7642288,61
1689042009.797228,59
1689042009.8472278,53
1689042009.8972275,43
1689042009.9472325,37
1689042009.997227,38
1689042010.0470717,40
1689042010.0970707,38
1689042010.1471298,31
1689042010.197071,26
1689042010.2466328,25
1689042010.2972243,25
1689042010.3475714,29
1689042010.3975663,46
1689042010.4475665,69
1689042010.4965653,75
1689042010.5465698,69
1689042010.596566,62
1689042010.646566,58
1689042010.6971214,58
1689042010.746644,57
1689042010.7857978,52
1689042010.8306,47
1689042010.8808415,41
1689042010.9307346,38
1689042010.981371,36
1689042011.0308213,33
1689042011.0811229,33
1689042011.131127,52
1689042011.181123,62
1689042011.2311265,59
1689042011.281127,50
1689042011.3311274,40
1689042011.3811219,34
1689042011.4311218,32
1689042011.4805188,32
1689042011.5305922,29
1689042011.5805335,23
1689042011.6305332,18
1689042011.6805327,16
1689042011.7305474,16
1689042011.7805524,16
1689042011.8135486,15
1689042011.8635488,18
1689042011.9135485,35
1689042011.9635484,53
1689042012.014118,54
1689042012.0642889,46
1689042012.1142879,39
1689042012.1643584,34
1689042012.2142878,36
1689042012.2643466,37
1689042012.3142872,34
1689042012.364288,30
1689042012.414287,29
1689042012.4642868,30
1689042012.5142868,31
1689042012.5631597,31
1689042012.6137397,31
1689042012.6639822,40
1689042012.714162,57
1689042012.7642446,66
1689042012.7966561,61
1689042012.8473628,57
1689042012.8968916,51
1689042012.9468224,46
1689042012.996821,45
1689042013.0468206,43
1689042013.09682,40
1689042013.14682,36
1689042013.19682,31
1689042013.246502,26
1689042013.2963753,23
1689042013.3473704,19
1689042013.3963711,14
1689042013.4473703,16
1689042013.51137,34
1689042013.5603707,48
1689042013.6103704,42
1689042013.6605337,37
1689042013.7114317,31
1689042013.760418,29
1689042013.794418,31
1689042013.8452325,31
1689042013.8952057,28
1689042013.9445431,24
1689042013.9964597,20
1689042014.046466,18
1689042014.0964596,18
1689042014.1468036,18
1689042014.1987078,18
1689042014.2487037,32
1689042014.2967029,49
1689042014.346703,52
1689042014.3967025,46
1689042014.4467072,39
1689042014.4967027,35
1689042014.5487025,37
1689042014.5977068,40
1689042014.6477025,40
1689042014.6977072,37
1689042014.7477028,35
1689042014.7857025,33
1689042014.8307064,34
1689042014.8807023,34
1689042014.9307065,36
1689042014.9807014,46
1689042015.0307014,61
1689042015.0807025,64
1689042015.1307058,58
1689042015.1805665,52
1689042015.2307901,47
1689042015.28079,45
1689042015.330849,44
1689042015.3807907,41
1689042015.4310334,36
1689042015.4810338,30
1689042015.5304036,24
1689042015.5804076,21
1689042015.6304076,19
1689042015.6814036,18
1689042015.7304494,24
1689042015.7804034,46
1689042015.81887,55
1689042015.867223,52
1689042015.9172275,43
1689042015.9672246,37
1689042016.0172238,33
1689042016.0672233,36
1689042016.117223,38
1689042016.1672227,35
1689042016.2172976,29
1689042016.2672272,24
1689042016.3172224,22
1689042016.3682222,21
1689042016.416729,22
1689042016.466821,35
1689042016.5169766,55
1689042016.5671465,62
1689042016.6166844,55
1689042016.6673143,46
1689042016.7173078,41
1689042016.7673097,43
1689042016.800309,48
1689042016.8513086,48
1689042016.9013126,43
1689042016.9513078,40
1689042017.0013077,38
1689042017.0510979,38
1689042017.1004512,38
1689042017.1505122,39
1689042017.2005167,50
1689042017.2504508,68
1689042017.300456,72
1689042017.3504527,66
1689042017.4011607,59
1689042017.4508314,53
1689042017.5008357,50
1689042017.550836,49
1689042017.6008372,45
1689042017.6508312,40
1689042017.7008307,34
1689042017.7508307,28
1689042017.7868311,23
1689042017.8338313,20
1689042017.8838305,17
1689042017.933835,23
1689042017.9838352,43
1689042018.0338347,60
1689042018.0838351,58
1689042018.133835,49
1689042018.1838305,41
1689042018.2338345,38
1689042018.2838347,39
1689042018.3338342,40
1689042018.3838296,38
1689042018.4337394,32
1689042018.4836757,27
1689042018.5336747,24
1689042018.5836751,22
1689042018.6341639,21
1689042018.6836655,31
1689042018.73367,52
1689042018.7836697,63
1689042018.81667,58
1689042018.8666697,53
1689042018.9166648,46
1689042018.9666655,44
1689042019.0166647,48
1689042019.0666647,49
1689042019.1166706,44
1689042019.1666694,40
1689042019.2166667,40
1689042019.2666693,40
1689042019.3166666,40
1689042019.3666651,40
1689042019.4166641,54
1689042019.4666638,70
1689042019.5166638,72
1689042019.5663698,66
1689042019.6172423,59
1689042019.6671298,53
1689042019.71713,49
1689042019.7671263,47
1689042019.8011255,43
1689042019.8511975,40
1689042019.901126,34
1689042019.9511297,29
1689042020.0011294,23
1689042020.0511262,19
1689042020.1011245,16
1689042020.1511247,24
1689042020.2011251,44
1689042020.251147,58
1689042020.3011496,54
1689042020.3511472,47
1689042020.4011471,40
1689042020.451143,36
1689042020.5011427,37
1689042020.5511467,37
1689042020.6011426,33
1689042020.6511428,27
1689042020.7011487,23
1689042020.7511466,22
1689042020.7871425,22
1689042020.8361416,21
1689042020.8841462,25
1689042020.9341414,42
1689042020.984142,61
1689042021.040146,62
1689042021.0901413,57
1689042021.1401458,50
1689042021.190146,47
1689042021.2401416,49
1689042021.2901454,50
1689042021.3401408,47
1689042021.3901405,43
1689042021.440141,41
1689042021.490142,41
1689042021.540145,41
1689042021.5901403,40
1689042021.640141,38
1689042021.690145,47
1689042021.7401414,64
1689042021.787145,70
1689042021.823145,66
1689042021.8731399,60
1689042021.9231408,53
1689042021.9731402,48
1689042022.0311441,46
1689042022.081139,42
1689042022.1311443,36
1689042022.181144,27
1689042022.2311394,20
1689042022.2811441,16
1689042022.3311458,15
1689042022.3811438,16
1689042022.4311395,15
1689042022.481145,13
1689042022.5311394,26
1689042022.581139,51
1689042022.6311393,62
1689042022.6811433,56
1689042022.7311392,47
1689042022.781143,40
1689042022.8361387,39
1689042022.8841429,40
1689042022.9341388,38
1689042022.9841387,31
1689042023.0341432,24
1689042023.0841432,21
1689042023.1341422,21
1689042023.1841426,23
1689042023.234143,24
1689042023.284142,23
1689042023.3341382,35
1689042023.3841424,58
1689042023.4341373,72
1689042023.484142,69
1689042023.5341418,62
1689042023.584139,55
1689042023.6341376,52
1689042023.6841416,54
1689042023.7341366,54
1689042023.7841365,49
1689042023.8173947,43
1689042023.8678374,40
1689042023.9182303,37
1689042023.9682271,36
1689042024.01823,34
1689042024.0682254,31
1689042024.1182253,29
1689042024.1682258,40
1689042024.2182298,61
1689042024.2682295,67
1689042024.3182306,59
1689042024.3682294,49
1689042024.4182296,40
1689042024.4682248,34
1689042024.518229,33
1689042024.5682294,32
1689042024.6182241,26
1689042024.6682289,19
1689042024.7182288,13
1689042024.7682245,9
1689042024.8012316,8
1689042024.8512285,9
1689042024.9012249,10
1689042024.9512236,10
1689042025.0012288,13
1689042025.0512288,36
1689042025.1012235,63
1689042025.1512284,66
1689042025.2012234,58
1689042025.2512283,48
1689042025.3012238,41
1689042025.3512278,41
1689042025.4012237,43
1689042025.4512284,40
1689042025.5012226,33
1689042025.5512252,27
1689042025.6012273,25
1689042025.6512225,26
1689042025.7012274,26
1689042025.751227,24
1689042025.787228,25
1689042025.8352268,37
1689042025.8852227,66
1689042025.9352238,82
1689042025.984837,77
1689042026.0348306,67
1689042026.0848346,59
1689042026.13483,54
1689042026.1848304,53
1689042026.2348342,50
1689042026.2848291,43
1689042026.3348339,36
1689042026.384829,30
1689042026.4348292,27
1689042026.4848359,24
1689042026.5348296,21
1689042026.5848339,13
1689042026.6348343,7
1689042026.6848297,21
1689042026.7348332,50
1689042026.7848332,61
1689042026.8228333,52
1689042026.8708293,46
1689042026.9208295,39
1689042026.9708328,34
1689042027.0318327,36
1689042027.081828,37
1689042027.131834,33
1689042027.1818326,25
1689042027.2318377,18
1689042027.2818284,14
1689042027.3318324,13
1689042027.3818285,14
1689042027.431832,13
1689042027.4958367,20
1689042027.5458279,58
1689042027.5958319,75
1689042027.6458316,68
1689042027.6958318,56
1689042027.7458358,47
1689042027.786827,47
1689042027.8288274,50
1689042027.8788273,52
1689042027.9288316,47
1689042027.9788265,40
1689042028.031831,36
1689042028.0818274,37
1689042028.131831,40
1689042028.181827,40
1689042028.2318308,40
1689042028.2818263,47
1689042028.3318305,73
1689042028.3818305,84
1689042028.4318302,80
1689042028.4818268,71
1689042028.5318267,63
1689042028.5818262,56
1689042028.6318254,53
1689042028.6818342,50
1689042028.731825,43
1689042028.78183,35
1689042028.819826,27
1689042028.8678298,21
1689042028.917825,14
1689042028.9678297,9
1689042029.0178246,4
1689042029.0678253,1
1689042029.1178293,10
1689042029.1678295,41
1689042029.2178292,66
1689042029.2678292,64
1689042029.3178244,53
1689042029.3678248,44
1689042029.4178247,40
1689042029.4678245,40
1689042029.5178308,41
1689042029.5678284,36
1689042029.6178253,27
1689042029.6680713,19
1689042029.718179,15
1689042029.76818,14
1689042029.80218,13
1689042029.8571837,13
1689042029.9071798,18
1689042029.9571795,49
1689042030.0152214,73
1689042030.0650158,71
1689042030.1150112,61
1689042030.1650152,51
1689042030.2150114,47
1689042030.2660112,50
1689042030.315012,51
1689042030.3650112,46
1689042030.415015,40
1689042030.4650102,38
1689042030.5150108,39
1689042030.5650148,41
1689042030.6150107,40
1689042030.6650147,38
1689042030.7150104,49
1689042030.7650173,73
1689042030.7990096,83
1689042030.8490145,80
1689042030.8990142,71
1689042030.9490101,64
1689042031.0010142,56
1689042031.04901,51
1689042031.0990095,47
1689042031.1490102,40
1689042031.1990116,32
1689042031.2490096,22
1689042031.2990098,13
1689042031.3490095,7
1689042031.3990092,5
1689042031.4490094,2
1689042031.4990098,1
1689042031.5510092,22
1689042031.599013,57
1689042031.6490135,69
1689042031.69901,62
1689042031.7490087,51
1689042031.78801,42
1689042031.8350127,40
1689042031.8850138,41
1689042031.9350126,40
1689042031.984921,34
1689042032.0349216,26
1689042032.0845528,19
1689042032.1351862,16
1689042032.1845744,17
1689042032.234574,16
1689042032.284569,18
1689042032.3345735,40
1689042032.3845735,69
1689042032.43457,77
1689042032.484569,70
1689042032.5345736,62
1689042032.584569,56
1689042032.634569,57
1689042032.6845691,60
1689042032.734573,58
1689042032.7845728,52
1689042032.8175728,46
1689042032.8675728,43
1689042032.917574,41
1689042032.9675686,39
1689042033.017568,36
1689042033.0675676,37
1689042033.117568,53
1689042033.167572,73
1689042033.2175734,76
1689042033.2675707,69
1689042033.317568,61
1689042033.3675678,54
1689042033.4175677,48
1689042033.4675736,44
1689042033.5315711,34
1689042033.581573,24
1689042033.6315713,14
1689042033.681567,9
1689042033.7315664,8
1689042033.7815714,9
1689042033.8155713,9
1689042033.8655663,8
1689042033.9155736,7
1689042033.9655716,27
1689042034.0155666,59
1689042034.0655665,69
1689042034.115532,61
1689042034.1659923,50
1689042034.2159915,41
1689042034.2659922,40
1689042034.3159907,42
1689042034.36513,40
1689042034.4155462,33
1689042034.465551,26
1689042034.5155506,22
1689042034.565547,21
1689042034.6155457,22
1689042034.665546,24
1689042034.7155507,32
1689042034.765546,55
1689042034.7985463,78
1689042034.8485463,81
1689042034.8985465,76
1689042034.9485502,68
1689042034.9985461,62
1689042035.04855,58
1689042035.0985477,57
1689042035.14855,52
1689042035.19855,45
1689042035.2485497,39
1689042035.298546,34
1689042035.3485467,31
1689042035.3985503,29
1689042035.4485497,27
1689042035.4985514,24
1689042035.5485492,25
1689042035.5995507,45
1689042035.6485488,68
1689042035.698545,70
1689042035.748548,61
1689042035.7875488,51
1689042035.832549,45
1689042035.8825486,39
1689042035.9325492,37
1689042035.9825485,36
1689042036.032544,30
1689042036.0825484,24
1689042036.1325443,18
1689042036.1825445,15
1689042036.232544,13
1689042036.282548,13
1689042036.332543,12
1689042036.3825476,9
1689042036.4325438,18
1689042036.4825478,53
1689042036.532544,69
1689042036.5825472,65
1689042036.6325433,53
1689042036.6825476,42
1689042036.7325425,38
1689042036.782547,41
1689042036.8155472,41
1689042036.8655493,39
1689042036.915547,30
1689042036.965542,23
1689042037.015542,19
1689042037.065547,18
1689042037.116542,19
1689042037.1655464,17
1689042037.2155461,19
1689042037.2655427,42
1689042037.315542,69
1689042037.3655422,72
1689042037.4155467,62
1689042037.4655418,51
1689042037.5155435,44
1689042037.5655463,44
1689042037.6155417,46
1689042037.6655416,43
1689042037.7155457,37
1689042037.7655413,29
1689042037.7985415,25
1689042037.8485456,24
1689042037.8985412,24
1689042037.9485452,24
1689042037.998541,24
1689042038.0505402,42
1689042038.1005452,70
1689042038.148545,76
1689042038.1985455,70
1689042038.2485447,60
1689042038.2985446,51
1689042038.3485446,46
1689042038.3985443,47
1689042038.4485402,44
1689042038.4985406,38
1689042038.5495226,32
1689042038.5983229,27
1689042038.6493192,26
1689042038.6993227,26
1689042038.7493222,26
1689042038.7883217,32
1689042038.8333306,46
1689042038.8823178,73
1689042038.9333184,78
1689042038.9833357,72
1689042039.0333169,65
1689042039.0833197,60
1689042039.133322,58
1689042039.1833212,57
1689042039.2333174,54
1689042039.2833214,48
1689042039.3333166,42
1689042039.3833182,39
1689042039.433318,37
1689042039.482317,36
1689042039.5333183,34
1689042039.5833178,40
1689042039.6333487,61
1689042039.6833158,70
1689042039.7333179,68
1689042039.7833204,62
1689042039.8153162,57
1689042039.8663156,53
1689042039.9163208,51
1689042039.9663289,50
1689042040.0163202,46
1689042040.065315,40
1689042040.11632,36
1689042040.1663156,33
1689042040.215315,31
1689042040.26632,29
1689042040.3153148,27
1689042040.3663194,23
1689042040.4163191,27
1689042040.4653149,44
1689042040.5163195,58
1689042040.56632,56
1689042040.6153235,50
1689042040.666319,44
1689042040.716314,38
1689042040.766319,35
1689042040.7993145,32
1689042040.8503137,30
1689042040.901314,25
1689042040.9503138,20
1689042041.000316,17
1689042041.0493183,16
1689042041.1003182,16
1689042041.150318,16
1689042041.200318,15
1689042041.2493136,13
1689042041.301314,21
1689042041.3513136,43
1689042041.4003153,57
1689042041.449313,53
1689042041.5003147,43
1689042041.5503144,36
1689042041.6003125,34
1689042041.650317,36
1689042041.699318,36
1689042041.7503176,31
1689042041.7893124,25
1689042041.8333168,22
1689042041.882313,20
1689042041.9333127,20
1689042041.982418,20
1689042042.0331128,19
1689042042.083162,26
1689042042.1331658,45
1689042042.1831665,60
1689042042.2331662,58
1689042042.2831612,50
1689042042.3331656,41
1689042042.3831668,38
1689042042.433162,39
1689042042.4831605,40
1689042042.5331652,35
1689042042.583161,29
1689042042.6331654,24
1689042042.6831603,22
1689042042.733165,22
1689042042.7831652,21
1689042042.8161607,23
1689042042.8661647,32
1689042042.9161603,53
1689042042.9661658,62
1689042043.0161655,58
1689042043.0661597,50
1689042043.1161594,42
1689042043.1660066,40
1689042043.2156296,40
1689042043.2656252,39
1689042043.3168335,34
1689042043.3671427,27
1689042043.4171383,23
1689042043.467142,22
1689042043.517142,20
1689042043.5671422,19
1689042043.6171417,30
1689042043.667142,52
1689042043.7171378,63
1689042043.7671416,58
1689042043.8001416,50
1689042043.8542173,43
1689042043.9050992,40
1689042043.955104,39
1689042044.014103,38
1689042044.064099,33
1689042044.1140988,27
1689042044.164098,22
1689042044.2134013,20
1689042044.26411,19
1689042044.3142097,20
1689042044.3672123,35
1689042044.4172084,57
1689042044.4672132,65
1689042044.5172124,60
1689042044.567212,55
1689042044.6172082,46
1689042044.6672075,40
1689042044.717208,40
1689042044.7672117,40
1689042044.8002117,35
1689042044.8562076,30
1689042044.9062114,25
1689042044.9562066,23
1689042045.0172062,22
1689042045.0668223,25
1689042045.1168988,41
1689042045.1669028,61
1689042045.216903,66
1689042045.266899,60
1689042045.3168988,51
1689042045.3669028,43
1689042045.416903,41
1689042045.4669023,43
1689042045.5167875,43
1689042045.5667872,40
1689042045.616788,36
1689042045.666783,32
1689042045.716783,30
1689042045.766787,30
1689042045.800787,42
1689042045.8497827,56
1689042045.8997867,69
1689042045.9497867,65
1689042045.9997864,55
1689042046.0497835,46
1689042046.0997863,42
1689042046.1497867,44
1689042046.1997862,43
1689042046.2497823,39
1689042046.2997875,32
1689042046.349786,27
1689042046.399786,25
1689042046.4497817,27
1689042046.4997857,29
1689042046.5497816,40
1689042046.599786,61
1689042046.6497855,73
1689042046.6997876,66
1689042046.7497857,55
1689042046.7887814,46
1689042046.835781,43
1689042046.8857813,45
1689042046.9357853,44
1689042046.985781,40
1689042047.0357807,32
1689042047.0857847,26
1689042047.1357806,22
1689042047.1857805,20
1689042047.2357848,19
1689042047.2857804,17
1689042047.3357847,15
1689042047.3861413,18
1689042047.4354541,40
1689042047.485458,61
1689042047.5354576,59
1689042047.5854583,47
1689042047.6354575,37
1689042047.685454,33
1689042047.735458,37
1689042047.7854528,39
1689042047.8194532,34
1689042047.8694572,30
1689042047.9194582,24
1689042047.9694574,20
1689042048.0194528,19
1689042048.0694568,19
1689042048.1194527,19
1689042048.169453,18
1689042048.2194576,17
1689042048.2694523,17
1689042048.3194528,35
1689042048.3694565,57
1689042048.4194524,58
1689042048.4694567,47
1689042048.5195065,37
1689042048.569539,32
1689042048.619544,35
1689042048.6695392,39
1689042048.7195451,36
1689042048.7695389,30
1689042048.8025386,24
1689042048.85263,22
1689042048.902736,20
1689042048.952735,20
1689042049.0027404,20
1689042049.0527396,20
1689042049.1027398,19
1689042049.152741,19
1689042049.2027357,36
1689042049.2527354,56
1689042049.3027353,58
1689042049.3527396,46
1689042049.402735,36
1689042049.4527404,31
1689042049.502739,34
1689042049.552735,38
1689042049.6027405,36
1689042049.6527348,29
1689042049.7027352,22
1689042049.7527337,15
1689042049.7897346,12
1689042049.8357403,12
1689042049.8857336,13
1689042049.935739,14
1689042049.9857345,13
1689042050.0357342,14
1689042050.0857399,32
1689042050.1357336,55
1689042050.185738,56
1689042050.2357345,83
1689042050.2857382,110
1689042050.3367379,98
1689042050.3867338,90
1689042050.4367385,86
1689042050.4867375,77
1689042050.5367384,65
1689042050.5867324,54
1689042050.6367328,46
1689042050.6867337,41
1689042050.736737,39
1689042050.786737,37
1689042050.8197386,43
1689042050.8697321,55
1689042050.919737,66
1689042050.9697335,61
1689042051.0207367,50
1689042051.0697367,40
1689042051.1197317,38
1689042051.1697326,41
1689042051.2197366,44
1689042051.269732,42
1689042051.3197367,38
1689042051.3697321,34
1689042051.4192882,32
1689042051.469369,31
1689042051.5194657,33
1689042051.5694716,45
1689042051.6194696,61
1689042051.6694653,64
1689042051.7194717,57
1689042051.769465,49
1689042051.8024664,44
1689042051.8584697,43
1689042051.9084651,45
1689042051.958469,45
1689042052.0164695,42
1689042052.0665298,38
1689042052.116469,35
1689042052.166469,34
1689042052.2164733,34
1689042052.2664666,43
1689042052.3164637,59
1689042052.3664649,64
1689042052.4164643,61
1689042052.4664686,56
1689042052.5164685,51
1689042052.5664694,50
1689042052.616468,52
1689042052.6664634,51
1689042052.7164679,47
1689042052.7664635,43
1689042052.800464,41
1689042052.855463,41
1689042052.905468,42
1689042052.9554691,53
1689042053.0164676,68
1689042053.0664673,71
1689042053.1164672,65
1689042053.1674628,59
1689042053.2164629,55
1689042053.2664623,55
1689042053.316467,56
1689042053.3664622,55
1689042053.4164667,51
1689042053.466467,47
1689042053.5164664,46
1689042053.5664623,45
1689042053.6164665,44
1689042053.6664627,47
1689042053.7164662,60
1689042053.7664623,72
1689042053.8004673,70
1689042053.8554611,66
1689042053.9054656,61
1689042053.9554617,56
1689042054.0164618,54
1689042054.0664613,52
1689042054.1164608,48
1689042054.1664627,43
1689042054.2164605,40
1689042054.266465,37
1689042054.3164606,36
1689042054.366462,34
1689042054.4164648,33
1689042054.466465,32
1689042054.516461,31
1689042054.566461,30
1689042054.6164606,38
1689042054.6664658,56
1689042054.7164643,67
1689042054.7664642,64
1689042054.8004644,58
1689042054.8504643,55
1689042054.90046,52
1689042054.9504602,49
1689042055.0004606,48
1689042055.0504615,45
1689042055.100459,40
1689042055.15046,38
1689042055.2004588,35
1689042055.2505605,34
1689042055.3007195,32
1689042055.3507195,31
1689042055.4007194,29
1689042055.450721,28
1689042055.5007236,27
1689042055.5507193,26
1689042055.601724,29
1689042055.6527228,43
1689042055.7012875,60
1689042055.7502875,61
1689042055.790289,54
1689042055.8342876,51
1689042055.8842916,47
1689042055.9342914,44
1689042055.9842916,43
1689042056.034292,41
1689042056.0842867,37
1689042056.1342928,33
1689042056.1842875,30
1689042056.233291,29
1689042056.2832875,28
1689042056.334291,27
1689042056.3832905,26
1689042056.4342866,25
1689042056.5112906,24
1689042056.562286,21
1689042056.611286,25
1689042056.6622875,40
1689042056.7122855,54
1689042056.76129,52
1689042056.795287,44
1689042056.8452902,40
1689042056.8952868,37
1689042056.945287,36
1689042057.001287,37
1689042057.0512853,35
1689042057.1012864,30
1689042057.1502893,25
1689042057.2002892,23
1689042057.2502897,22
1689042057.3012908,22
1689042057.351285,22
1689042057.4012892,21
1689042057.4502852,20
1689042057.5142848,19
1689042057.568289,26
1689042057.618289,44
1689042057.6672843,54
1689042057.7172847,50
1689042057.7682858,41
1689042057.8012903,35
1689042057.851287,34
1689042057.9012854,36
1689042057.951284,38
1689042058.0022833,36
1689042058.0512881,31
1689042058.1012852,27
1689042058.151284,24
1689042058.2002878,23
1689042058.250284,23
1689042058.3002877,23
1689042058.352288,23
1689042058.4022877,31
1689042058.4512885,49
1689042058.5012825,59
1689042058.5512824,56
1689042058.6013012,48
1689042058.6512825,41
1689042058.7012832,40
1689042058.7512832,40
1689042058.7902822,41
1689042058.8342824,40
1689042058.8832827,35
1689042058.9342818,30
1689042058.9842868,28
1689042059.034286,27
1689042059.084282,27
1689042059.1342862,27
1689042059.1842897,40
1689042059.2332866,59
1689042059.284286,65
1689042059.3332813,62
1689042059.3842819,54
1689042059.4342823,48
1689042059.499281,45
1689042059.549158,45
1689042059.5992649,44
1689042059.6501365,40
1689042059.6989746,35
1689042059.7483065,31
1689042059.7898774,30
1689042059.831878,30
1689042059.8818738,30
1689042059.9318798,31
1689042059.9818773,44
1689042060.034873,65
1689042060.0848727,71
1689042060.134878,64
1689042060.1848772,56
1689042060.2348769,50
1689042060.2848768,48
1689042060.3348773,48
1689042060.3848784,47
1689042060.4348764,42
1689042060.4988723,38
1689042060.5478723,35
1689042060.5978765,34
1689042060.647872,34
1689042060.6978722,34
1689042060.7478797,32
1689042060.7898712,39
1689042060.831876,52
1689042060.8818762,73
1689042060.9318755,74
1689042060.9818716,66
1689042061.0348773,58
1689042061.0848715,54
1689042061.134876,51
1689042061.1848757,50
1689042061.2348719,46
1689042061.2848759,40
1689042061.3348749,35
1689042061.384871,31
1689042061.4348757,29
1689042061.5118747,28
1689042061.5618706,26
1689042061.6118743,25
1689042061.6618698,24
1689042061.7118742,40
1689042061.7618744,64
1689042061.7958703,71
1689042061.8458712,67
1689042061.8958702,57
1689042061.945869,50
1689042062.0008898,47
1689042062.0488887,47
1689042062.0988922,46
1689042062.1488879,41
1689042062.1988878,36
1689042062.2488883,30
1689042062.2988935,27
1689042062.3488915,26
1689042062.3988876,25
1689042062.4488873,25
1689042062.5118911,24
1689042062.5618985,22
1689042062.6118913,37
1689042062.661887,63
1689042062.711886,72
1689042062.7618914,64
1689042062.7958877,53
1689042062.8508868,47
1689042062.9008906,45
1689042062.9508867,46
1689042063.000891,46
1689042063.0508869,41
1689042063.1008906,35
1689042063.1508899,29
1689042063.2008903,26
1689042063.2508855,24
1689042063.3008907,23
1689042063.3508897,23
1689042063.4008856,22
1689042063.4508915,20
1689042063.5028896,21
1689042063.5528855,49
1689042063.6008894,70
1689042063.6508853,67
1689042063.7008855,55
1689042063.7508893,44
1689042063.789889,40
1689042063.8378851,42
1689042063.8878844,45
1689042063.9378853,42
1689042063.987885,35
1689042064.037889,27
1689042064.0878854,21
1689042064.1378846,18
1689042064.1878898,14
1689042064.2378838,12
1689042064.287888,8
1689042064.3378885,5
1689042064.3878844,10
1689042064.4378834,40
1689042064.501884,70
1689042064.551883,67
1689042064.601884,53
1689042064.6518836,40
1689042064.7018874,35
1689042064.7518833,40
1689042064.7898843,44
1689042064.8388846,42
1689042064.8878877,33
1689042064.9378834,24
1689042064.9878871,18
1689042065.0378869,14
1689042065.0878878,12
1689042065.137882,11
1689042065.187883,12
1689042065.237887,32
1689042065.287887,64
1689042065.337883,76
1689042065.3878863,66
1689042065.4378872,51
1689042065.4878862,40
1689042065.5378861,38
1689042065.587886,42
1689042065.637882,44
1689042065.6878858,40
1689042065.737882,31
1689042065.7878861,24
1689042065.820882,19
1689042065.8708818,17
1689042065.9208856,15
1689042065.9708815,17
1689042066.0208817,39
1689042066.0708816,71
1689042066.1208816,81
1689042066.1708872,71
1689042066.2208815,57
1689042066.2708852,46
1689042066.320885,44
1689042066.3708813,48
1689042066.4208848,48
1689042066.4708815,42
1689042066.5208802,34
1689042066.570886,27
1689042066.6208813,23
1689042066.6708808,21
1689042066.7208843,21
1689042066.7708845,38
1689042066.8038797,68
1689042066.8538802,81
1689042066.9038796,79
1689042066.9538836,69
1689042067.0038803,58
1689042067.0538795,52
1689042067.1048837,52
1689042067.1548836,53
1689042067.2048786,49
1689042067.254884,42
1689042067.3048792,37
1689042067.3548834,33
1689042067.404879,31
1689042067.454879,33
1689042067.504879,47
1689042067.554883,71
1689042067.6048777,78
1689042067.6548827,71
1689042067.7048786,61
1689042067.7548783,53
1689042067.7908826,50
1689042067.837882,51
1689042067.8878822,50
1689042067.9378786,45
1689042067.9878821,40
1689042068.037883,35
1689042068.0878768,33
1689042068.1378772,33
1689042068.1878817,32
1689042068.2378776,43
1689042068.2878785,65
1689042068.3378775,76
1689042068.3878815,71
1689042068.4378772,64
1689042068.4878812,58
1689042068.5378966,54
1689042068.5878963,52
1689042068.6379004,50
1689042068.6878998,45
1689042068.737896,39
1689042068.7879,35
1689042068.8208973,32
1689042068.870896,30
1689042068.9209003,30
1689042068.9708958,29
1689042069.0209,36
1689042069.0708961,56
1689042069.1208954,70
1689042069.1708956,67
1689042069.2209125,59
1689042069.2709079,54
1689042069.3209078,50
1689042069.3709085,48
1689042069.4209123,46
1689042069.4709125,42
1689042069.5209134,37
1689042069.5709126,32
1689042069.620914,29
1689042069.6710048,28
1689042069.7210078,27
1689042069.7710032,26
1689042069.8050032,24
1689042069.8550026,25
1689042069.9052074,40
1689042069.9545124,62
1689042070.0045087,68
1689042070.054512,61
1689042070.104508,53
1689042070.1545088,48
1689042070.2045116,45
1689042070.254508,45
1689042070.304512,42
1689042070.3545115,37
1689042070.4045076,31
1689042070.4545114,26
1689042070.5045118,23
1689042070.5545065,23
1689042070.6045072,22
1689042070.654507,21
1689042070.7045078,19
1689042070.7545116,16
1689042070.7905061,28
1689042070.840511,44
1689042070.8905077,62
1689042070.940511,59
1689042071.0015106,48
1689042071.0515063,38
1689042071.1015108,36
1689042071.1515105,38
1689042071.2015061,38
1689042071.2515104,33
1689042071.3015053,25
1689042071.3515062,18
1689042071.4015057,13
1689042071.4515076,11
1689042071.5015113,12
1689042071.5515099,12
1689042071.60151,13
1689042071.6535063,33
1689042071.7015069,61
1689042071.7515104,69
1689042071.7905092,59
1689042071.837505,55
1689042071.8875048,39
1689042071.9375186,38
1689042071.987506,42
1689042072.037504,42
1689042072.0875056,36
1689042072.137509,27
1689042072.1875086,21
1689042072.2375045,17
1689042072.2875085,16
1689042072.3375056,16
1689042072.38751,23
1689042072.437508,50
1689042072.487509,74
1689042072.537508,73
1689042072.5877316,60
1689042072.637726,47
1689042072.6877308,40
1689042072.7377267,41
1689042072.7877266,45
1689042072.8217285,42
1689042072.8717268,38
1689042072.9217267,30
1689042072.9717252,23
1689042073.021732,21
1689042073.0717266,20
1689042073.121725,24
1689042073.1717303,46
1689042073.2217257,72
1689042073.2717316,76
1689042073.3217292,66
1689042073.3717296,56
1689042073.4227247,48
1689042073.4717295,46
1689042073.5217311,48
1689042073.5717258,45
1689042073.6217253,40
1689042073.6717293,32
1689042073.721725,27
1689042073.7717292,25
1689042073.804724,24
1689042073.8547287,27
1689042073.9047256,46
1689042073.954724,71
1689042074.0047286,75
1689042074.0547307,67
1689042074.1047292,57
1689042074.1547258,50
1689042074.2047286,48
1689042074.254728,49
1689042074.3047285,46
1689042074.354728,40
1689042074.4047282,32
1689042074.4547238,26
1689042074.5047278,24
1689042074.5547235,23
1689042074.6047237,31
1689042074.6547277,52
1689042074.704723,71
1689042074.7547276,70
1689042074.7907238,61
1689042074.8377223,55
1689042074.887723,49
1689042074.9377222,47
1689042074.9881215,48
1689042075.038043,45
1689042075.0878794,40
1689042075.1375444,35
1689042075.18754,32
1689042075.2375438,30
1689042075.287544,29
1689042075.3375394,31
1689042075.3875403,48
1689042075.437544,69
1689042075.4885395,72
1689042075.5385437,64
1689042075.5885487,56
1689042075.6385431,50
1689042075.688539,48
1689042075.7385385,48
1689042075.7885451,44
1689042075.8215396,40
1689042075.8715444,36
1689042075.9215388,31
1689042075.9715426,28
1689042076.0215435,27
1689042076.0715384,26
1689042076.1215377,24
1689042076.171543,29
1689042076.2215388,49
1689042076.271544,68
1689042076.321538,67
1689042076.3715422,57
1689042076.421538,48
1689042076.4715428,44
1689042076.5215373,44
1689042076.5715418,44
1689042076.6215377,40
1689042076.671537,33
1689042076.7215395,27
1689042076.7715414,23
1689042076.8045435,21
1689042076.8545372,21
1689042076.9045415,20
1689042076.9545367,18
1689042077.0042608,16
1689042077.0548923,27
1689042077.1048923,52
1689042077.1548877,67
1689042077.2048943,62
1689042077.2548876,49
1689042077.3048913,40
1689042077.3548877,40
1689042077.4048922,43
1689042077.4548914,42
1689042077.5048919,37
1689042077.5548916,28
1689042077.604892,22
1689042077.6548886,18
1689042077.704891,16
1689042077.7548869,16
1689042077.790891,16
1689042077.840886,15
1689042077.8908932,13
1689042077.9408906,27
1689042078.0028903,58
1689042078.0528862,72
1689042078.1028907,65
1689042078.1530468,50
1689042078.2030463,37
1689042078.2530465,36
1689042078.3030498,41
1689042078.3530455,40
1689042078.4030497,33
1689042078.4530451,23
1689042078.5030456,16
1689042078.553049,12
1689042078.6030445,10
1689042078.6530497,10
1689042078.703049,10
1689042078.7530506,10
1689042078.7920449,23
1689042078.842045,52
1689042078.8920488,79
1689042078.9420488,74
1689042079.0030458,56
1689042079.0527074,38
1689042079.1027114,34
1689042079.1527066,40
1689042079.2027118,45
1689042079.25271,39
1689042079.3027062,29
1689042079.3527057,19
1689042079.4027057,13
1689042079.4527059,10
1689042079.5027099,10
1689042079.5527108,10
1689042079.6067102,19
1689042079.6547096,53
1689042079.7047048,82
1689042079.7547097,77
1689042079.7917051,59
1689042079.8387094,46
1689042079.8887064,34
1689042079.9387093,35
1689042079.988709,42
1689042080.0387094,42
1689042080.0887103,34
1689042080.138705,24
1689042080.1887085,16
1689042080.2387085,12
1689042080.2887042,11
1689042080.338704,12
1689042080.3886666,36
1689042080.4387267,73
1689042080.4887307,87
1689042080.5387259,75
1689042080.5887258,57
1689042080.6387308,43
1689042080.6887307,40
1689042080.738726,47
1689042080.7887304,49
1689042080.8217263,42
1689042080.871726,37
1689042080.9217298,28
1689042080.97173,22
1689042081.0277262,19
1689042081.0787253,23
1689042081.1287255,51
1689042081.177725,81
1689042081.2277253,83
1689042081.2777293,71
1689042081.3277254,58
1689042081.3777258,50
1689042081.4277294,50
1689042081.4777293,52
1689042081.5277288,49
1689042081.577725,42
1689042081.6277237,35
1689042081.6777284,31
1689042081.727729,29
1689042081.7777286,31
1689042081.8107285,48
1689042081.8607242,66
1689042081.910739,80
1689042081.9607284,75
1689042082.0167232,65
1689042082.0667245,55
1689042082.1167278,53
1689042082.1667237,53
1689042082.2167244,51
1689042082.266723,46
1689042082.3167295,40
1689042082.3667274,36
1689042082.4167225,34
1689042082.467189,32
1689042082.5167735,39
1689042082.5697691,59
1689042082.6197686,74
1689042082.6697733,71
1689042082.7197728,62
1689042082.7697694,54
1689042082.802769,49
1689042082.852773,49
1689042082.9027686,49
1689042082.952768,45
1689042083.003773,39
1689042083.0527732,34
1689042083.1027684,31
1689042083.1527684,29
1689042083.2027683,28
1689042083.2535317,31
1689042083.3025315,48
1689042083.3525307,67
1689042083.4025316,68
1689042083.452531,60
1689042083.5025303,52
1689042083.5525353,47
1689042083.602531,47
1689042083.6525302,47
1689042083.7025309,42
1689042083.752531,37
1689042083.79153,32
1689042083.83553,30
1689042083.88553,28
1689042083.935531,27
1689042083.98553,27
1689042084.0355306,25
1689042084.0855365,28
1689042084.1355295,51
1689042084.1855302,68
1689042084.2355309,66
1689042084.285534,60
1689042084.3355339,50
1689042084.385529,45
1689042084.4355342,45
1689042084.4855297,44
1689042084.535535,40
1689042084.5855389,32
1689042084.635529,26
1689042084.6855338,22
1689042084.7355292,19
1689042084.7865293,18
1689042084.8195283,17
1689042084.869529,16
1689042084.9195285,12
1689042084.969529,16
1689042085.0225327,41
1689042085.072528,63
1689042085.1229866,65
1689042085.1731956,53
1689042085.2232,40
1689042085.2731955,38
1689042085.3231952,41
1689042085.3731995,40
1689042085.4231997,35
1689042085.4732,28
1689042085.523194,22
1689042085.5731955,19
1689042085.6231997,18
1689042085.6731951,17
1689042085.7231991,15
1689042085.773194,13
1689042085.8061948,27
1689042085.8561938,46
1689042085.906194,69
1689042085.9561987,66
1689042086.005408,53
1689042086.0554123,40
1689042086.105412,36
1689042086.155412,41
1689042086.2054117,44
1689042086.2554119,40
1689042086.3055086,32
1689042086.3554118,26
1689042086.4054074,22
1689042086.4554071,22
1689042086.5054111,23
1689042086.555407,23
1689042086.6054113,30
1689042086.6554065,55
1689042086.7054064,76
1689042086.7554061,73
1689042086.7914083,61
1689042086.8414109,53
1689042086.8914065,45
1689042086.9414105,45
1689042087.0024104,48
1689042087.0504081,44
1689042087.1004055,37
1689042087.1504054,29
1689042087.2004054,25
1689042087.2504056,23
1689042087.300405,23
1689042087.3504057,23
1689042087.4004061,26
1689042087.4504058,47
1689042087.5004058,73
1689042087.5504057,76
1689042087.6004093,66
1689042087.6504104,55
1689042087.7004092,48
1689042087.7504048,46
1689042087.7914093,47
