timestamp,bvp
1689042505.385638,66
1689042505.4356296,57
1689042505.4856913,51
1689042505.5356338,48
1689042505.5856292,47
1689042505.6360867,42
1689042505.6861851,36
1689042505.7361815,29
1689042505.7865605,24
1689042505.8255694,22
1689042505.8695612,21
1689042505.9185648,20
1689042505.968561,18
1689042506.018561,17
1689042506.0691125,17
1689042506.119113,31
1689042506.1691122,69
1689042506.2191164,84
1689042506.2691123,78
1689042506.3191159,66
1689042506.369112,58
1689042506.4191122,53
1689042506.4691122,52
1689042506.5191133,48
1689042506.5691116,41
1689042506.6191115,35
1689042506.6685486,29
1689042506.719549,26
1689042506.769549,24
1689042506.8185523,23
1689042506.8525522,22
1689042506.9015481,21
1689042506.952548,20
1689042507.0025482,18
1689042507.0519695,35
1689042507.101976,62
1689042507.1519756,82
1689042507.2019746,75
1689042507.2519803,63
1689042507.301975,54
1689042507.3519757,51
1689042507.4019754,53
1689042507.4519756,52
1689042507.5019746,45
1689042507.5519755,37
1689042507.6019752,31
1689042507.6519785,26
1689042507.7019734,24
1689042507.7519746,23
1689042507.8019738,21
1689042507.835978,20
1689042507.8859737,18
1689042507.9359765,17
1689042507.9859776,33
1689042508.0399745,66
1689042508.0889778,82
1689042508.138977,71
1689042508.1889775,59
1689042508.238978,53
1689042508.288977,52
1689042508.3389723,52
1689042508.3889735,46
1689042508.4389737,38
1689042508.4889731,30
1689042508.5530457,25
1689042508.6029782,23
1689042508.652978,23
1689042508.7029727,23
1689042508.7529788,22
1689042508.8029718,20
1689042508.8359785,21
1689042508.8859773,33
1689042508.9359767,64
1689042508.9860387,81
1689042509.0359714,73
1689042509.085976,59
1689042509.135972,49
1689042509.1859734,47
1689042509.2359736,48
1689042509.2859757,46
1689042509.3359754,39
1689042509.385972,30
1689042509.4359753,22
1689042509.4859762,15
1689042509.5499701,11
1689042509.6000583,9
1689042509.6500304,8
1689042509.699973,6
1689042509.7499712,6
1689042509.799971,29
1689042509.8329713,65
1689042509.8829708,76
1689042509.932971,69
1689042509.9830477,55
1689042510.0359712,43
1689042510.0859709,40
1689042510.13597,42
1689042510.1859708,41
1689042510.2359707,35
1689042510.285971,24
1689042510.3359697,16
1689042510.38597,11
1689042510.4359708,11
1689042510.485974,10
1689042510.5499697,8
1689042510.6029735,28
1689042510.6529737,58
1689042510.7029748,64
1689042510.7529695,52
1689042510.80297,38
1689042510.8359685,32
1689042510.8919702,37
1689042510.9419737,45
1689042510.9919744,44
1689042511.0529678,36
1689042511.1029725,25
1689042511.1530166,20
1689042511.2029676,20
1689042511.253035,21
1689042511.3029673,31
1689042511.3529682,58
1689042511.4029725,82
1689042511.4529686,78
1689042511.5029685,65
1689042511.5669694,54
1689042511.616972,56
1689042511.666968,61
1689042511.7169683,58
1689042511.7669737,47
1689042511.816968,38
1689042511.8559678,32
1689042511.9059677,30
1689042511.955968,29
1689042512.0059714,32
1689042512.055967,55
1689042512.1059675,86
1689042512.1559672,91
1689042512.2059674,80
1689042512.256029,71
1689042512.3059711,63
1689042512.3559723,56
1689042512.405967,53
1689042512.4559658,48
1689042512.50597,39
1689042512.5559666,31
1689042512.6059656,25
1689042512.6559699,23
1689042512.7059712,22
1689042512.7559679,28
1689042512.8059661,54
1689042512.8389697,79
1689042512.8951643,81
1689042512.9451625,71
1689042512.995163,63
1689042513.0531669,55
1689042513.103166,47
1689042513.1531625,44
1689042513.203163,40
1689042513.2531621,32
1689042513.3031626,24
1689042513.3531616,19
1689042513.403223,17
1689042513.453166,16
1689042513.5031612,14
1689042513.5541613,13
1689042513.6031651,17
1689042513.6531613,42
1689042513.7031617,71
1689042513.7531617,74
1689042513.8031616,66
1689042513.8561652,58
1689042513.9061608,50
1689042513.956161,46
1689042514.0061615,43
1689042514.056161,37
1689042514.1061609,29
1689042514.1561646,23
1689042514.2062314,19
1689042514.2561643,17
1689042514.3061597,16
1689042514.35616,15
1689042514.4061663,13
1689042514.45616,12
1689042514.5061607,11
1689042514.5701604,27
1689042514.6202347,57
1689042514.6701586,70
1689042514.7201636,66
1689042514.7701635,59
1689042514.8201642,53
1689042514.8531594,49
1689042514.9031596,47
1689042514.9531593,45
1689042515.0031595,39
1689042515.053158,32
1689042515.10316,26
1689042515.1531594,23
1689042515.2032456,21
1689042515.253249,20
1689042515.303249,18
1689042515.353244,16
1689042515.4032502,14
1689042515.453244,13
1689042515.5032434,14
1689042515.553247,33
1689042515.6032448,61
1689042515.6532447,69
1689042515.703246,61
1689042515.7532468,54
1689042515.8032448,50
1689042515.8362494,47
1689042515.8863068,47
1689042515.936248,44
1689042515.9862442,38
1689042516.0362487,31
1689042516.087244,26
1689042516.1372483,23
1689042516.187249,22
1689042516.2372475,21
1689042516.2872434,20
1689042516.337247,18
1689042516.3872426,16
1689042516.4372435,15
1689042516.4882472,19
1689042516.538242,41
1689042516.5872426,66
1689042516.637244,67
1689042516.687243,58
1689042516.7373126,52
1689042516.7872422,48
1689042516.8252466,47
1689042516.8702915,47
1689042516.920242,43
1689042516.9702415,36
1689042517.020246,29
1689042517.070246,25
1689042517.1202419,23
1689042517.1702423,22
1689042517.2202408,21
1689042517.2702453,19
1689042517.320243,17
1689042517.370241,15
1689042517.4202454,16
1689042517.4702408,38
1689042517.5202413,64
1689042517.5702431,69
1689042517.6202452,61
1689042517.6703098,52
1689042517.7202415,47
1689042517.77024,46
1689042517.8202446,46
1689042517.8532407,43
1689042517.9032407,39
1689042517.9533024,31
1689042518.0032446,24
1689042518.053242,19
1689042518.103244,16
1689042518.153246,15
1689042518.2032456,14
1689042518.2532408,11
1689042518.3032408,8
1689042518.3532438,5
1689042518.4032397,8
1689042518.4532392,32
1689042518.5032437,60
1689042518.55424,62
1689042518.6032395,52
1689042518.6532388,43
1689042518.703243,39
1689042518.7532454,40
1689042518.8032386,43
1689042518.83724,40
1689042518.8872395,35
1689042518.937239,27
1689042518.98724,21
1689042519.0382426,19
1689042519.0872428,18
1689042519.1372435,18
1689042519.1872425,16
1689042519.2382438,20
1689042519.287242,40
1689042519.3372386,58
1689042519.387237,56
1689042519.437243,44
1689042519.487242,34
1689042519.5382419,31
1689042519.5872402,36
1689042519.637238,39
1689042519.6872385,34
1689042519.737237,25
1689042519.7872376,18
1689042519.8262365,13
1689042519.8702376,11
1689042519.9202828,10
1689042519.9702375,9
1689042520.0202377,13
1689042520.0732362,40
1689042520.1232407,61
1689042520.1732364,60
1689042520.223238,51
1689042520.2732406,44
1689042520.3232422,41
1689042520.3732405,45
1689042520.4232368,46
1689042520.473301,41
1689042520.5232372,33
1689042520.57324,27
1689042520.6232493,23
1689042520.6732988,22
1689042520.7232351,22
1689042520.7732358,22
1689042520.8232393,37
1689042520.8562367,65
1689042520.906236,77
1689042520.9563098,76
1689042521.0062997,67
1689042521.0562356,60
1689042521.1062393,54
1689042521.1562958,51
1689042521.2062354,49
1689042521.2562392,42
1689042521.3062344,34
1689042521.3562942,27
1689042521.406235,22
1689042521.456235,19
1689042521.5062387,17
1689042521.556236,15
1689042521.6062381,13
1689042521.6562393,18
1689042521.7062335,42
1689042521.7562344,64
1689042521.8062382,63
1689042521.8402333,56
1689042521.890235,52
1689042521.940234,47
1689042521.9902384,42
1689042522.040235,40
1689042522.0902355,37
1689042522.1402376,30
1689042522.1903067,23
1689042522.240237,18
1689042522.2902372,15
1689042522.3402374,14
1689042522.390234,12
1689042522.4402337,10
1689042522.4902322,9
1689042522.540237,8
1689042522.5902374,20
1689042522.6402369,43
1689042522.6902363,54
1689042522.740232,49
1689042522.7902951,44
1689042522.8262327,41
1689042522.8732324,40
1689042522.9232326,39
1689042522.9732347,39
1689042523.0233119,35
1689042523.0732365,30
1689042523.123236,25
1689042523.1732326,23
1689042523.223232,21
1689042523.273231,20
1689042523.3232322,19
1689042523.3732316,18
1689042523.423232,16
1689042523.473237,15
1689042523.5232353,18
1689042523.5732315,37
1689042523.6232347,55
1689042523.6732306,55
1689042523.723235,48
1689042523.773231,44
1689042523.8232312,42
1689042523.8572364,41
1689042523.9072304,41
1689042523.9572344,40
1689042524.0072346,35
1689042524.0572343,31
1689042524.1072357,28
1689042524.1572342,26
1689042524.2072906,25
1689042524.2572293,25
1689042524.3072352,23
1689042524.3573248,22
1689042524.407231,21
1689042524.457229,20
1689042524.5072336,24
1689042524.5572302,49
1689042524.6072302,60
1689042524.6572335,54
1689042524.7072294,47
1689042524.7572293,44
1689042524.8072293,44
1689042524.8402328,45
1689042524.8902283,44
1689042524.9402292,40
1689042524.9902287,37
1689042525.0402327,33
1689042525.0902326,31
1689042525.1402283,30
1689042525.1902285,29
1689042525.2402282,28
1689042525.290229,27
1689042525.3402321,25
1689042525.3902285,24
1689042525.440229,23
1689042525.4902284,34
1689042525.5402286,55
1689042525.590227,64
1689042525.6402333,57
1689042525.6902273,50
1689042525.7402315,47
1689042525.7902277,47
1689042525.8262281,49
1689042525.8732274,48
1689042525.9232278,44
1689042525.9732268,40
1689042526.0232275,36
1689042526.0732672,34
1689042526.1232326,33
1689042526.1732275,32
1689042526.2232308,30
1689042526.273226,29
1689042526.3232305,28
1689042526.3732264,27
1689042526.4232879,29
1689042526.4732265,46
1689042526.523227,67
1689042526.5732958,65
1689042526.6232262,57
1689042526.6732268,53
1689042526.723225,51
1689042526.773227,53
1689042526.8232298,52
1689042526.8572252,48
1689042526.90723,44
1689042526.9572299,40
1689042527.0073004,36
1689042527.057002,35
1689042527.1070013,34
1689042527.1574726,33
1689042527.2074773,31
1689042527.2574718,29
1689042527.3074725,27
1689042527.3574772,36
1689042527.4074714,59
1689042527.4574761,74
1689042527.5066688,69
1689042527.5706706,58
1689042527.6206694,54
1689042527.67067,54
1689042527.7207355,55
1689042527.770673,53
1689042527.8206697,47
1689042527.8586688,41
1689042527.9066699,37
1689042527.9566686,34
1689042528.0066733,32
1689042528.0566688,31
1689042528.1066685,29
1689042528.1566727,28
1689042528.2066724,26
1689042528.2566676,37
1689042528.3066685,60
1689042528.3566685,74
1689042528.4066675,69
1689042528.456668,60
1689042528.5066683,53
1689042528.5566685,51
1689042528.6066682,52
1689042528.6566715,51
1689042528.7066677,45
1689042528.7566679,38
1689042528.8066678,32
1689042528.8396716,28
1689042528.8956673,27
1689042528.945667,25
1689042528.9956675,25
1689042529.0536678,23
1689042529.1036673,20
1689042529.1536713,30
1689042529.2036672,53
1689042529.254497,63
1689042529.3045003,55
1689042529.3544955,44
1689042529.404495,39
1689042529.4544961,38
1689042529.504496,41
1689042529.5544968,40
1689042529.6044955,35
1689042529.6544955,28
1689042529.7044992,24
1689042529.7544954,22
1689042529.8044958,22
1689042529.857499,21
1689042529.907067,26
1689042529.9570634,43
1689042530.0070672,55
1689042530.0570633,50
1689042530.1070673,40
1689042530.1570673,32
1689042530.2070665,31
1689042530.2570624,37
1689042530.307067,38
1689042530.3570623,33
1689042530.4070666,27
1689042530.457062,21
1689042530.5070667,19
1689042530.5570662,19
1689042530.6070626,20
1689042530.657063,28
1689042530.7070618,50
1689042530.7570615,67
1689042530.8070626,64
1689042530.8400621,56
1689042530.890062,51
1689042530.9400659,45
1689042530.9900618,46
1689042531.0400634,48
1689042531.0900614,45
1689042531.1400669,39
1689042531.190061,33
1689042531.2400672,30
1689042531.2900605,30
1689042531.3400648,30
1689042531.3900619,33
1689042531.440065,50
1689042531.4900656,72
1689042531.5410619,76
1689042531.5910606,71
1689042531.64106,66
1689042531.6910658,59
1689042531.7411323,55
1689042531.7910612,54
1689042531.82706,50
1689042531.874064,45
1689042531.9240594,40
1689042531.97406,34
1689042532.02406,31
1689042532.074059,31
1689042532.1240635,30
1689042532.1740599,29
1689042532.2240598,40
1689042532.2740633,63
1689042532.32406,77
1689042532.3740606,75
1689042532.4240596,71
1689042532.4740632,64
1689042532.524061,56
1689042532.574063,53
1689042532.6240592,50
1689042532.674059,44
1689042532.7240589,39
1689042532.774119,33
1689042532.824058,29
1689042532.862092,27
1689042532.9100575,26
1689042532.9600575,24
1689042533.010138,22
1689042533.0710628,21
1689042533.1210577,35
1689042533.1710587,62
1689042533.2210588,76
1689042533.2710598,73
1689042533.3210616,69
1689042533.3710628,63
1689042533.4210632,55
1689042533.4710617,52
1689042533.5210574,48
1689042533.5710616,43
1689042533.6210573,37
1689042533.6720617,31
1689042533.721119,28
1689042533.7710574,26
1689042533.8210614,24
1689042533.8550591,23
1689042533.905064,21
1689042533.9550567,20
1689042534.0050611,19
1689042534.055057,33
1689042534.1050615,51
1689042534.1551502,76
1689042534.2050617,79
1689042534.2550602,75
1689042534.3050551,68
1689042534.355057,61
1689042534.4050558,57
1689042534.4550564,53
1689042534.5050566,46
1689042534.555055,39
1689042534.6050596,32
1689042534.6550558,28
1689042534.7050593,26
1689042534.7550554,24
1689042534.8050559,21
1689042534.8380556,18
1689042534.8880553,17
1689042534.9380589,15
1689042534.9880543,13
1689042535.0420587,22
1689042535.0910552,56
1689042535.14106,74
1689042535.1910553,70
1689042535.2410543,63
1689042535.291055,58
1689042535.341055,51
1689042535.3910582,47
1689042535.4410584,45
1689042535.4910548,39
1689042535.5410552,31
1689042535.591054,24
1689042535.6410596,20
1689042535.6910539,19
1689042535.7410588,18
1689042535.7910578,17
1689042535.827054,15
1689042535.8740578,14
1689042535.924058,12
1689042535.9740539,11
1689042536.024054,10
1689042536.0740523,16
1689042536.1240537,42
1689042536.174054,70
1689042536.224059,73
1689042536.2740567,65
1689042536.324057,59
1689042536.3740525,53
1689042536.424053,51
1689042536.4740522,51
1689042536.5240533,48
1689042536.5740526,41
1689042536.6240523,36
1689042536.6740527,32
1689042536.7240524,31
1689042536.7740562,30
1689042536.8240523,27
1689042536.858052,24
1689042536.9080522,23
1689042536.9580526,20
1689042537.0081244,24
1689042537.0600514,47
1689042537.1100512,79
1689042537.1600506,76
1689042537.2100568,69
1689042537.2600505,63
1689042537.3100517,56
1689042537.3600564,52
1689042537.410055,49
1689042537.4600518,44
1689042537.5100508,39
1689042537.56005,31
1689042537.6100512,25
1689042537.6600542,21
1689042537.710053,18
1689042537.7600496,15
1689042537.8100498,12
1689042537.8440502,7
1689042537.894054,5
1689042537.9440498,3
1689042537.9940493,5
1689042538.05505,31
1689042538.1050496,68
1689042538.1550536,73
1689042538.2050493,65
1689042538.255054,59
1689042538.3050518,53
1689042538.3550534,50
1689042538.40505,49
1689042538.4550502,46
1689042538.5050488,40
1689042538.5551088,32
1689042538.605112,25
1689042538.6550496,21
1689042538.705049,20
1689042538.7550492,19
1689042538.805049,18
1689042538.838049,15
1689042538.8880525,13
1689042538.9380488,10
1689042538.991049,25
1689042539.0420532,55
1689042539.0911067,70
1689042539.1410484,64
1689042539.1910489,55
1689042539.2410479,49
1689042539.2911093,48
1689042539.3410494,53
1689042539.3910487,53
1689042539.4410472,46
1689042539.4910512,37
1689042539.5410473,29
1689042539.5910482,25
1689042539.6410477,23
1689042539.6910477,22
1689042539.7410474,19
1689042539.791111,16
1689042539.827049,13
1689042539.8740475,16
1689042539.9240477,40
1689042539.9738379,73
1689042540.0238414,83
1689042540.0739002,74
1689042540.1238406,66
1689042540.173841,59
1689042540.2238374,53
1689042540.273837,51
1689042540.3238373,48
1689042540.3738406,40
1689042540.4238365,32
1689042540.4748352,23
1689042540.5518365,18
1689042540.6018376,15
1689042540.651836,13
1689042540.7018936,11
1689042540.7518363,8
1689042540.8018355,6
1689042540.8358364,6
1689042540.8938391,21
1689042540.9438345,59
1689042540.9938393,85
1689042541.0548368,82
1689042541.1048412,70
1689042541.1548355,61
1689042541.2048392,55
1689042541.2548344,53
1689042541.3048358,52
1689042541.3548398,45
1689042541.4048352,36
1689042541.4548352,27
1689042541.504835,21
1689042541.554838,17
1689042541.6048932,16
1689042541.6548388,14
1689042541.7048378,13
1689042541.754835,10
1689042541.804838,8
1689042541.8398342,9
1689042541.890834,23
1689042541.939834,62
1689042541.988834,88
1689042542.0388372,85
1689042542.0888374,73
1689042542.1388373,63
1689042542.1888337,56
1689042542.2388372,54
1689042542.2888372,53
1689042542.3388379,48
1689042542.388833,39
1689042542.438833,29
1689042542.488832,23
1689042542.5388343,17
1689042542.5888367,15
1689042542.6388316,14
1689042542.6888325,11
1689042542.7388318,7
1689042542.7888324,4
1689042542.8268325,8
1689042542.8748925,26
1689042542.9248323,73
1689042542.9748323,88
1689042543.0248356,78
1689042543.0748317,65
1689042543.124832,54
1689042543.1748314,48
1689042543.2248316,50
1689042543.274835,50
1689042543.3248308,43
1689042543.3748324,35
1689042543.4248357,27
1689042543.474831,21
1689042543.5248315,17
1689042543.5748317,15
1689042543.6248317,14
1689042543.6748347,11
1689042543.724836,14
1689042543.7748325,41
1689042543.8248346,73
1689042543.8638308,77
1689042543.913831,69
1689042543.963834,54
1689042544.0138922,41
1689042544.0718362,42
1689042544.1218297,50
1689042544.1718318,50
1689042544.221829,43
1689042544.2718306,35
1689042544.3218296,30
1689042544.3718288,28
1689042544.4218304,28
1689042544.471881,28
1689042544.5218313,27
1689042544.5718336,38
1689042544.6218297,70
1689042544.6718295,95
1689042544.7218285,93
1689042544.771833,80
1689042544.8218298,69
1689042544.854829,61
1689042544.9048328,58
1689042544.954829,58
1689042545.0048304,55
1689042545.0548325,45
1689042545.1048331,36
1689042545.1548321,27
1689042545.204832,22
1689042545.2548275,20
1689042545.304829,18
1689042545.354827,16
1689042545.404828,13
1689042545.454907,12
1689042545.507829,33
1689042545.5578287,71
1689042545.607828,86
1689042545.6578283,78
1689042545.7078295,66
1689042545.757828,57
1689042545.8078322,51
1689042545.8418262,50
1689042545.8918264,50
1689042545.941827,45
1689042545.9918318,37
1689042546.0418959,29
1689042546.0918312,23
1689042546.1418307,20
1689042546.191915,19
1689042546.2418258,18
1689042546.2918262,17
1689042546.3418858,17
1689042546.3918269,35
1689042546.4418268,66
1689042546.49183,80
1689042546.5418262,75
1689042546.5918264,65
1689042546.6418252,56
1689042546.6918263,52
1689042546.7418296,53
1689042546.791826,51
1689042546.827826,43
1689042546.8748295,38
1689042546.9248297,31
1689042546.9748306,26
1689042547.024829,24
1689042547.0748289,23
1689042547.1248243,22
1689042547.174826,21
1689042547.2248244,20
1689042547.274826,37
1689042547.3248274,73
1689042547.3748906,83
1689042547.4248245,77
1689042547.4758248,69
1689042547.5528283,62
1689042547.6028235,55
1689042547.6528296,53
1689042547.7028246,48
1689042547.7528245,40
1689042547.8028228,33
1689042547.8358245,28
1689042547.8858242,27
1689042547.935824,25
1689042547.9858236,24
1689042548.0388231,22
1689042548.0888233,19
1689042548.1388235,17
1689042548.1898248,19
1689042548.2398272,41
1689042548.2888236,72
1689042548.3388233,80
1689042548.388823,72
1689042548.4388244,65
1689042548.4888806,60
1689042548.5388234,56
1689042548.5888245,54
1689042548.6388268,49
1689042548.6888218,42
1689042548.7388265,36
1689042548.7888217,30
1689042548.8278236,27
1689042548.8748229,26
1689042548.9248226,24
1689042548.9748263,22
1689042549.0248227,20
1689042549.0748258,18
1689042549.1248214,15
1689042549.1748254,28
1689042549.2248256,53
1689042549.2748268,64
1689042549.324822,57
1689042549.3748255,50
1689042549.4248211,44
1689042549.4748218,40
1689042549.5248218,40
1689042549.5748217,39
1689042549.6248248,33
1689042549.6748264,26
1689042549.7248225,21
1689042549.7748263,18
1689042549.824822,17
1689042549.858821,17
1689042549.908821,18
1689042549.958821,19
1689042550.0088203,19
1689042550.0588243,31
1689042550.1088192,52
1689042550.1588778,61
1689042550.208825,55
1689042550.258819,47
1689042550.3088205,43
1689042550.3588212,46
1689042550.408888,50
1689042550.4588234,48
1689042550.5088236,42
1689042550.558825,37
1689042550.608823,33
1689042550.6588185,30
1689042550.7088192,28
1689042550.7588184,27
1689042550.8088233,25
1689042550.8418207,30
1689042550.8918247,43
1689042550.9418228,68
1689042550.9918187,74
1689042551.0418193,67
1689042551.0918174,60
1689042551.1418207,54
1689042551.1918209,51
1689042551.2418191,51
1689042551.2918174,47
1689042551.341822,40
1689042551.3918197,34
1689042551.4418173,29
1689042551.491823,26
1689042551.5418198,25
1689042551.5918183,24
1689042551.6418185,22
1689042551.6918826,20
1689042551.7418993,33
1689042551.7918787,58
1689042551.8278172,69
1689042551.8748171,65
1689042551.924821,57
1689042551.9748168,51
1689042552.024883,46
1689042552.0748174,44
1689042552.1248853,43
1689042552.1748173,39
1689042552.2248168,32
1689042552.274816,26
1689042552.324817,22
1689042552.3748174,21
1689042552.4258165,21
1689042552.4758213,20
1689042552.52582,18
1689042552.57582,20
1689042552.625817,40
1689042552.6758173,58
1689042552.7258162,57
1689042552.7758167,49
1689042552.8258162,42
1689042552.8588758,39
1689042552.9088914,40
1689042552.958817,42
1689042553.0088146,40
1689042553.0588155,35
1689042553.1088169,29
1689042553.1588142,26
1689042553.2088156,25
1689042553.2588153,25
1689042553.308815,24
1689042553.3588145,22
1689042553.4088144,22
1689042553.4588182,39
1689042553.5088148,61
1689042553.558815,65
1689042553.6088138,58
1689042553.658818,52
1689042553.7098181,48
1689042553.7588181,47
1689042553.8088133,48
1689042553.841813,44
1689042553.8918147,40
1689042553.9418135,34
1689042553.9918156,29
1689042554.041813,26
1689042554.0918136,25
1689042554.1418126,24
1689042554.1918173,22
1689042554.2418146,19
1689042554.2918172,18
1689042554.341813,30
1689042554.3918123,53
1689042554.4418192,64
1689042554.4918168,59
1689042554.541814,54
1689042554.5918164,50
1689042554.6418123,46
1689042554.6918743,45
1689042554.7418122,43
1689042554.791813,38
1689042554.8278162,32
1689042554.875817,28
1689042554.925814,24
1689042554.9758127,22
1689042555.0258157,21
1689042555.0758116,19
1689042555.1258123,16
1689042555.1758115,14
1689042555.225812,14
1689042555.2758884,30
1689042555.32587,52
1689042555.3758152,59
1689042555.4258153,53
1689042555.4758103,49
1689042555.525888,46
1689042555.575811,44
1689042555.6258128,44
1689042555.6758113,42
1689042555.7258098,38
1689042555.7758725,32
1689042555.8258145,28
1689042555.8638144,25
1689042555.9118109,24
1689042555.9618146,22
1689042556.011814,20
1689042556.0728106,17
1689042556.1228094,15
1689042556.172811,14
1689042556.2228138,16
1689042556.2728093,33
1689042556.3228104,56
1689042556.3728101,63
1689042556.4228098,57
1689042556.4728136,53
1689042556.5228102,50
1689042556.5728095,47
1689042556.6228094,46
1689042556.6728094,43
1689042556.7228096,39
1689042556.7728093,33
1689042556.822809,29
1689042556.8558087,27
1689042556.9058144,26
1689042556.9558127,25
1689042557.005874,23
1689042557.055809,22
1689042557.1058078,20
1689042557.1558082,19
1689042557.2058086,18
1689042557.2558086,21
1689042557.305812,40
1689042557.355882,63
1689042557.4058082,67
1689042557.4558115,61
1689042557.5058117,57
1689042557.5558076,54
1689042557.6058114,51
1689042557.6558113,49
1689042557.705808,46
1689042557.7558112,40
1689042557.8058112,35
1689042557.8398104,31
1689042557.8898113,29
1689042557.939807,27
1689042557.9898074,26
1689042558.039808,24
1689042558.089807,23
1689042558.1398125,21
1689042558.1898105,20
1689042558.2398121,20
1689042558.2908063,28
1689042558.3408067,52
1689042558.3898084,72
1689042558.4398062,72
1689042558.4898055,66
1689042558.5398061,62
1689042558.5898063,59
1689042558.639805,57
1689042558.6898062,56
1689042558.7398117,52
1689042558.789807,45
1689042558.828806,40
1689042558.872806,37
1689042558.9228108,34
1689042558.9728053,32
1689042559.0228045,30
1689042559.0728047,28
1689042559.1228058,26
1689042559.172809,24
1689042559.2228088,24
1689042559.2728055,36
1689042559.3228042,65
1689042559.3728054,76
1689042559.4225516,73
1689042559.4725552,67
1689042559.5225508,63
1689042559.5725515,60
1689042559.622556,58
1689042559.6725516,55
1689042559.722557,49
1689042559.772609,42
1689042559.8225508,37
1689042559.8565502,34
1689042559.9066114,33
1689042559.9565506,31
1689042560.0065546,29
1689042560.0565505,27
1689042560.1065497,25
1689042560.1565542,26
1689042560.2065494,44
1689042560.25655,68
1689042560.3065822,72
1689042560.3565505,65
1689042560.4065492,60
1689042560.4575553,56
1689042560.5065503,54
1689042560.5565498,52
1689042560.6065536,47
1689042560.656628,40
1689042560.706553,33
1689042560.7565494,28
1689042560.80655,24
1689042560.8395498,20
1689042560.8895488,17
1689042560.939553,12
1689042560.989554,7
1689042561.039553,4
1689042561.09055,16
1689042561.1395528,40
1689042561.189548,49
1689042561.239549,41
1689042561.2895489,33
1689042561.3395476,27
1689042561.38955,27
1689042561.4405527,31
1689042561.4895482,31
1689042561.539552,27
1689042561.5895514,21
1689042561.6395526,16
1689042561.6895497,15
1689042561.7395484,15
1689042561.7896209,16
1689042561.8285475,21
1689042561.872548,34
1689042561.9225478,50
1689042561.9725513,53
1689042562.0225465,47
1689042562.0725513,39
1689042562.1235511,34
1689042562.1735475,37
1689042562.2245562,40
1689042562.2735507,39
1689042562.323547,34
1689042562.3735516,29
1689042562.4235528,26
1689042562.473546,26
1689042562.5235503,26
1689042562.5735502,31
1689042562.6235466,53
1689042562.6735458,67
1689042562.723546,67
1689042562.7735498,60
1689042562.8235466,53
1689042562.8565464,47
1689042562.9065516,47
1689042562.9565456,48
1689042563.0065467,45
1689042563.0565453,40
1689042563.1065476,34
1689042563.1565504,30
1689042563.2065492,29
1689042563.2565458,28
1689042563.3065507,33
1689042563.3565488,51
1689042563.406549,67
1689042563.4565454,66
1689042563.506545,60
1689042563.5705504,53
1689042563.62055,48
1689042563.6705441,48
1689042563.720545,46
1689042563.77055,41
1689042563.8205485,36
1689042563.853545,31
1689042563.903548,29
1689042563.9535565,28
1689042564.0035436,28
1689042564.0535479,37
1689042564.1035452,57
1689042564.1535454,67
1689042564.2035477,63
1689042564.2536168,59
1689042564.3035476,54
1689042564.3535435,49
1689042564.4035435,47
1689042564.4535472,45
1689042564.5035434,40
1689042564.5535443,35
1689042564.6035469,30
1689042564.653542,27
1689042564.7035432,26
1689042564.753543,25
1689042564.8035436,33
1689042564.8375435,51
1689042564.8875465,57
1689042564.9375422,64
1689042564.9875433,58
1689042565.0395432,55
1689042565.0896428,50
1689042565.1395469,47
1689042565.1895432,46
1689042565.2395468,42
1689042565.2895458,38
1689042565.339542,33
1689042565.389541,29
1689042565.439542,28
1689042565.4895408,27
1689042565.5395412,26
1689042565.5915418,30
1689042565.6425405,53
1689042565.6895452,64
1689042565.7395446,61
1689042565.789542,57
1689042565.8285458,54
1689042565.8735414,50
1689042565.9235413,47
1689042565.9735456,45
1689042566.0235445,41
1689042566.0735807,37
1689042566.1235807,32
1689042566.1735797,29
1689042566.22358,28
1689042566.2735853,26
1689042566.323584,25
1689042566.3735795,27
1689042566.4235804,47
1689042566.4735792,63
1689042566.5235786,63
1689042566.5735834,59
1689042566.6235812,56
1689042566.6735792,51
1689042566.72358,48
1689042566.77358,46
1689042566.823581,42
1689042566.8565795,37
1689042566.9065797,34
1689042566.9565794,30
1689042567.006578,28
1689042567.0574336,26
1689042567.106429,25
1689042567.1574287,23
1689042567.2074292,25
1689042567.2574284,40
1689042567.3074334,58
1689042567.3574328,60
1689042567.407429,56
1689042567.4574294,53
1689042567.5064282,49
1689042567.5704286,45
1689042567.6204941,43
1689042567.6704285,40
1689042567.7214277,34
1689042567.7714283,29
1689042567.8214324,26
1689042567.855429,25
1689042567.9054306,24
1689042567.9554293,23
1689042568.0054276,21
1689042568.0564904,26
1689042568.1074326,43
1689042568.1564293,58
1689042568.2064269,58
1689042568.2574277,54
1689042568.307427,50
1689042568.3574276,46
1689042568.407427,44
1689042568.45649,43
1689042568.5074315,39
1689042568.557428,33
1689042568.6074271,28
1689042568.6574278,25
1689042568.7064273,24
1689042568.75743,22
1689042568.8074257,20
1689042568.8414278,19
1689042568.8924289,19
1689042568.9414275,32
1689042568.992427,51
1689042569.0414267,57
1689042569.0904944,53
1689042569.1414258,51
1689042569.191425,47
1689042569.241425,43
1689042569.2914302,42
1689042569.3414304,40
1689042569.39143,35
1689042569.4414256,29
1689042569.4906144,24
1689042569.5411584,22
1689042569.5911634,21
1689042569.6411579,19
1689042569.6911628,18
1689042569.7412257,17
1689042569.791162,24
1689042569.8301573,44
1689042569.8741574,55
1689042569.9241574,56
1689042569.9741578,51
1689042570.0242171,48
1689042570.0741587,44
1689042570.1241581,42
1689042570.1741579,41
1689042570.2241578,38
1689042570.2741668,33
1689042570.3241582,28
1689042570.3741617,24
1689042570.4241574,23
1689042570.4741573,22
1689042570.5241616,21
1689042570.5741606,19
1689042570.6241572,19
1689042570.6741576,29
1689042570.724157,49
1689042570.774167,58
1689042570.8241582,54
1689042570.8581574,50
1689042570.9081585,48
1689042570.9581566,44
1689042571.008166,42
1689042571.0581598,41
1689042571.108156,38
1689042571.15816,32
1689042571.20816,27
1689042571.2581556,24
1689042571.308155,23
1689042571.3581595,22
1689042571.4081652,20
1689042571.4581594,18
1689042571.5081553,17
1689042571.558159,23
1689042571.6081555,43
1689042571.6581585,58
1689042571.708156,56
1689042571.758155,51
1689042571.8082337,49
1689042571.841155,45
1689042571.8911552,43
1689042571.9411545,42
1689042571.9911547,40
1689042572.0411584,34
1689042572.0909166,30
1689042572.1409729,26
1689042572.1909761,25
1689042572.2410426,24
1689042572.2909734,23
1689042572.3409727,21
1689042572.3909762,20
1689042572.4409723,25
1689042572.4919775,42
1689042572.5409756,58
1689042572.5909772,56
1689042572.640976,50
1689042572.6909754,46
1689042572.7409756,43
1689042572.790971,42
1689042572.8299701,41
1689042572.8770316,40
1689042572.926971,34
1689042572.9769716,30
1689042573.0269713,27
1689042573.0769713,26
1689042573.1269708,25
1689042573.17697,24
1689042573.2269711,23
1689042573.2769704,22
1689042573.3269706,32
1689042573.3769698,51
1689042573.4269695,59
1689042573.476974,54
1689042573.5269709,49
1689042573.576974,46
1689042573.62697,44
1689042573.6770482,44
1689042573.7269738,42
1689042573.7769701,39
1689042573.8269732,34
1689042573.8649693,30
1689042573.9139733,29
1689042573.963973,28
1689042574.0139687,27
1689042574.0739698,26
1689042574.1239696,25
1689042574.1739695,26
1689042574.2239685,44
1689042574.2739727,59
1689042574.3239694,61
1689042574.3739688,55
1689042574.4239693,51
1689042574.4740372,48
1689042574.5239725,47
1689042574.5739677,47
1689042574.6239698,44
1689042574.6739683,40
1689042574.7249677,35
1689042574.774972,32
1689042574.8249676,31
1689042574.8579671,30
1689042574.9079678,29
1689042574.9579716,28
1689042575.0079672,26
1689042575.0579674,30
1689042575.107969,47
1689042575.157967,65
1689042575.2079675,65
1689042575.2579687,59
1689042575.307971,55
1689042575.3579667,52
1689042575.4079666,51
1689042575.457966,50
1689042575.507967,45
1689042575.571966,39
1689042575.6219666,35
1689042575.6719663,32
1689042575.7219722,31
1689042575.7719703,30
1689042575.8219702,28
1689042575.8609676,26
1689042575.9109662,29
1689042575.9609654,46
1689042576.0109677,64
1689042576.0609665,65
1689042576.11097,59
1689042576.1609654,55
1689042576.2109694,52
1689042576.2609656,51
1689042576.3109653,51
1689042576.360966,46
1689042576.4109666,41
1689042576.4609666,36
1689042576.5109692,33
1689042576.5609648,32
1689042576.6109688,31
1689042576.6609654,29
1689042576.710966,27
1689042576.7609653,28
1689042576.8109655,41
1689042576.8439648,63
1689042576.8999648,69
1689042576.9499683,65
1689042576.999965,59
1689042577.0579638,55
1689042577.108026,52
1689042577.157964,52
1689042577.208027,49
1689042577.2579677,43
1689042577.3079643,38
1689042577.3579674,33
1689042577.407964,30
1689042577.4579694,29
1689042577.5079675,28
1689042577.5579634,26
1689042577.607967,25
1689042577.6579638,29
1689042577.707967,49
1689042577.7579648,70
1689042577.8079667,70
1689042577.840967,64
1689042577.8909628,61
1689042577.9409645,57
1689042577.9909625,55
1689042578.0409625,54
1689042578.090963,51
1689042578.1409621,45
1689042578.1909623,37
1689042578.2409625,32
1689042578.290962,30
1689042578.3409634,28
1689042578.390966,26
1689042578.440962,24
1689042578.4909656,22
1689042578.5429673,22
1689042578.592962,36
1689042578.6409655,60
1689042578.690962,70
1689042578.7410212,64
1689042578.7910278,59
1689042578.829965,56
1689042578.8749604,53
1689042578.924965,51
1689042578.9749618,49
1689042579.024961,44
1689042579.0749614,38
1689042579.1249616,33
1689042579.1749644,29
1689042579.225023,27
1689042579.2749665,26
1689042579.3249643,24
1689042579.3749642,22
1689042579.4249616,21
1689042579.4749603,27
1689042579.52496,53
1689042579.5749595,68
1689042579.624959,66
1689042579.674965,61
1689042579.72496,57
1689042579.77496,53
1689042579.8249605,50
1689042579.8629594,48
1689042579.9109597,44
1689042579.9610188,39
1689042580.010961,33
1689042580.06096,30
1689042580.110959,28
1689042580.1609633,27
1689042580.2109606,25
1689042580.260961,24
1689042580.3109598,22
1689042580.3610187,22
1689042580.4109638,36
1689042580.4609628,60
1689042580.5109587,70
1689042580.560963,64
1689042580.6109583,60
1689042580.6609623,56
1689042580.7109573,53
1689042580.7610314,52
1689042580.8110292,48
1689042580.8439577,42
1689042580.893957,40
1689042580.9439583,35
1689042580.9939625,30
1689042581.043958,28
1689042581.0945926,27
1689042581.1435921,25
1689042581.1935956,23
1689042581.2435958,21
1689042581.293592,19
1689042581.3435953,22
1689042581.393592,40
1689042581.4435906,63
1689042581.4935913,66
1689042581.5575955,60
1689042581.6075952,56
1689042581.6576638,54
1689042581.7075946,53
1689042581.7575915,52
1689042581.807591,47
1689042581.84159,41
1689042581.8915942,39
1689042581.9415946,35
1689042581.9915917,33
1689042582.0415897,32
1689042582.091595,31
1689042582.141652,29
1689042582.1915903,27
1689042582.2415903,27
1689042582.2925894,41
1689042582.3415902,65
1689042582.3915918,72
1689042582.4415894,67
1689042582.4915931,63
1689042582.5415895,59
1689042582.5915902,56
1689042582.6415892,54
1689042582.691593,50
1689042582.7415893,43
1689042582.7916725,39
1689042582.830593,35
1689042582.87459,33
1689042582.9245934,32
1689042582.9745882,30
1689042583.0245924,28
1689042583.0745904,26
1689042583.1245885,24
1689042583.1745882,25
1689042583.2245889,38
1689042583.274588,58
1689042583.3245945,65
1689042583.374589,61
1689042583.4245882,58
1689042583.4745886,55
1689042583.5245922,51
1689042583.574592,48
1689042583.6245868,43
1689042583.6745875,38
1689042583.7245917,32
1689042583.7745879,26
1689042583.8245876,20
1689042583.858591,13
1689042583.9085872,8
1689042583.9585888,3
1689042584.0085866,0
1689042584.0585861,0
1689042584.1085906,0
1689042584.1585908,8
1689042584.2085865,24
1689042584.2585905,26
1689042584.3085868,22
1689042584.3585901,20
1689042584.4085891,19
1689042584.458588,24
1689042584.5086462,34
1689042584.5585902,37
1689042584.6085873,34
1689042584.658586,33
1689042584.7085853,33
1689042584.7585895,34
1689042584.80859,33
1689042584.84159,31
1689042584.8915858,33
1689042584.9415853,42
1689042584.991589,49
1689042585.0415897,46
1689042585.0916586,40
1689042585.1415854,34
1689042585.1916506,28
1689042585.2415893,26
1689042585.291584,25
1689042585.3415854,22
1689042585.3915868,19
1689042585.441584,16
1689042585.4915886,15
1689042585.541584,15
1689042585.591584,16
1689042585.6415908,18
1689042585.6916454,19
1689042585.7416568,26
1689042585.7925844,37
1689042585.830588,40
1689042585.8745837,39
1689042585.9245954,35
1689042585.9745877,31
1689042586.0245836,31
1689042586.0745833,33
1689042586.1245835,32
1689042586.1745842,28
1689042586.224587,26
1689042586.2745874,25
1689042586.324587,26
1689042586.3745868,27
1689042586.4245832,27
1689042586.4745834,29
1689042586.524587,38
1689042586.5745878,48
1689042586.624583,45
1689042586.674583,42
1689042586.7245817,40
1689042586.7746484,39
1689042586.8245826,40
1689042586.8585844,39
1689042586.9085863,37
1689042586.958584,34
1689042587.0086365,31
1689042587.058586,30
1689042587.1085818,30
1689042587.158581,29
1689042587.2085857,30
1689042587.258587,40
1689042587.308582,48
1689042587.3585854,53
1689042587.4095807,46
1689042587.459257,42
1689042587.5084834,40
1689042587.558484,40
1689042587.6084867,41
1689042587.658483,38
1689042587.7084844,31
1689042587.7584867,26
1689042587.808483,24
1689042587.8414817,24
1689042587.891482,24
1689042587.9424863,31
1689042587.9924817,52
1689042588.0424821,68
1689042588.0914824,64
1689042588.141486,60
1689042588.1914818,55
1689042588.2415082,50
1689042588.2914815,48
1689042588.3414867,47
1689042588.3914814,41
1689042588.4414816,33
1689042588.4914806,26
1689042588.541485,22
1689042588.5914857,20
1689042588.6414807,19
1689042588.6914856,24
1689042588.7434814,48
1689042588.7934802,71
1689042588.830481,70
1689042588.8754816,66
1689042588.9254797,64
1689042588.9755294,60
1689042589.02548,58
1689042589.0754843,60
1689042589.12548,58
1689042589.175481,51
1689042589.22548,45
1689042589.2755375,40
1689042589.325479,38
1689042589.375484,36
1689042589.4254885,33
1689042589.4754803,45
1689042589.5254793,79
1689042589.5764797,88
1689042589.6254797,82
1689042589.6755054,78
1689042589.7254848,72
1689042589.7754796,62
1689042589.825479,55
1689042589.858479,49
1689042589.9084795,44
1689042589.958479,35
1689042590.0085423,25
1689042590.0584843,19
1689042590.108483,17
1689042590.158478,17
1689042590.208483,15
1689042590.258479,14
1689042590.308482,33
1689042590.358478,68
1689042590.4084923,84
1689042590.458479,79
1689042590.508482,75
1689042590.5584786,67
1689042590.6084783,60
1689042590.6584804,58
1689042590.7084782,54
1689042590.7584815,44
1689042590.8084812,35
1689042590.841478,29
1689042590.8914816,26
1689042590.9414792,23
1689042590.991477,20
1689042591.042481,19
1689042591.0934768,34
1689042591.1434767,68
1689042591.191477,87
1689042591.2414806,81
1689042591.2914762,75
1689042591.3414757,67
1689042591.391477,59
1689042591.4424767,56
1689042591.4924762,52
1689042591.542477,43
1689042591.5924761,33
1689042591.6424801,25
1689042591.6924763,20
1689042591.7424757,17
1689042591.7924762,14
1689042591.8304756,11
1689042591.8754797,13
1689042591.9254756,47
1689042591.9754758,84
1689042592.0254745,89
1689042592.0754757,82
1689042592.1254745,76
1689042592.1754794,68
1689042592.226475,60
1689042592.275476,57
1689042592.3254898,50
1689042592.375474,39
1689042592.4260876,26
1689042592.476376,18
1689042592.5263722,12
1689042592.5763724,9
1689042592.626371,6
1689042592.6763725,4
1689042592.7263718,7
1689042592.776373,47
1689042592.8263767,87
1689042592.85937,91
1689042592.909371,85
1689042592.9593713,77
1689042593.0093746,70
1689042593.0593736,61
1689042593.1093745,57
1689042593.1593697,51
1689042593.2093718,40
1689042593.259372,29
1689042593.3093746,19
1689042593.35944,14
1689042593.4084463,11
1689042593.4584405,7
1689042593.5084443,5
1689042593.55844,11
1689042593.608441,47
1689042593.658444,86
1689042593.7084439,89
1689042593.7594419,79
1689042593.8084435,70
1689042593.8424988,61
1689042593.8924396,56
1689042593.9424393,53
1689042593.9924433,47
1689042594.0434399,36
1689042594.0933046,24
1689042594.1433046,14
1689042594.1933038,8
1689042594.2433078,6
1689042594.2933035,3
1689042594.3433034,0
1689042594.3933039,0
1689042594.4453027,30
1689042594.4953039,78
1689042594.5433052,96
1689042594.5933032,62
1689042594.6433654,57
1689042594.693303,52
1689042594.7433026,49
1689042594.7933042,48
1689042594.8323026,44
1689042594.876302,40
1689042594.9263031,35
1689042594.9763064,29
1689042595.026303,26
1689042595.076308,24
1689042595.1258376,23
1689042595.176028,22
1689042595.2260172,20
1689042595.276013,26
1689042595.3260126,48
1689042595.3770158,68
1689042595.4260135,68
1689042595.4760118,61
1689042595.5410118,56
1689042595.5900118,51
1689042595.6400108,49
1689042595.6900015,47
1689042595.739997,41
1689042595.7900004,35
1689042595.8319654,29
1689042595.872721,27
1689042595.9227202,25
1689042595.9727206,24
1689042596.0227253,22
1689042596.07272,20
1689042596.1227257,20
1689042596.1727242,29
1689042596.2227235,54
1689042596.2727199,72
1689042596.322913,69
1689042596.3729138,62
1689042596.4229138,57
1689042596.472914,52
1689042596.5228388,51
1689042596.5728383,48
1689042596.6228383,43
1689042596.6728373,36
1689042596.7229018,31
1689042596.7728379,27
1689042596.8228366,25
1689042596.856837,23
1689042596.9066188,22
1689042596.956622,20
1689042597.0066192,20
1689042597.0596175,33
1689042597.109622,68
1689042597.1596215,74
1689042597.2096176,66
1689042597.2596169,60
1689042597.3096175,55
1689042597.3596177,53
1689042597.409627,52
1689042597.4596176,48
1689042597.5096166,40
1689042597.559621,33
1689042597.609618,28
1689042597.6596208,25
1689042597.7096171,24
1689042597.7596169,23
1689042597.809621,21
1689042597.8426185,19
1689042597.8936205,23
1689042597.9436162,45
1689042597.9936173,71
1689042598.0426166,75
1689042598.0926783,67
1689042598.1426811,60
1689042598.1926212,55
1689042598.2426157,54
1689042598.2926767,53
1689042598.3426194,48
1689042598.3926163,40
1689042598.4426148,33
1689042598.4926198,28
1689042598.5426197,26
1689042598.5926197,24
1689042598.6426156,23
1689042598.692614,22
1689042598.7436147,23
1689042598.7936156,40
1689042598.831677,68
1689042598.8756192,77
1689042598.9256191,75
1689042598.975615,67
1689042599.0256155,60
1689042599.0756152,56
1689042599.1256204,55
1689042599.175615,53
1689042599.2256138,46
1689042599.2756135,39
1689042599.3256145,32
1689042599.3756142,28
1689042599.425614,27
1689042599.4756145,26
1689042599.5256143,24
1689042599.5756145,22
1689042599.625613,23
1689042599.6756175,44
1689042599.7256172,72
1689042599.7756138,79
1689042599.8266137,73
1689042599.8646128,65
1689042599.9126132,61
1689042599.9626136,58
1689042600.0126128,57
1689042600.062613,53
1689042600.1126134,45
1689042600.1626163,38
1689042600.2126167,33
1689042600.2626164,29
1689042600.3126166,28
1689042600.362682,26
1689042600.412614,25
1689042600.462616,23
1689042600.5126164,24
1689042600.5626762,43
1689042600.6126118,71
1689042600.6626158,78
1689042600.7126124,70
1689042600.7626116,63
1689042600.812672,58
1689042600.8456814,56
1689042600.8956125,55
1689042600.9456115,51
1689042600.9961638,44
1689042601.0463119,37
1689042601.0963125,32
1689042601.1463163,29
1689042601.1956353,30
1689042601.245635,30
1689042601.2956355,31
1689042601.3456311,29
1689042601.395635,32
1689042601.4456303,51
1689042601.4956348,75
1689042601.5456955,78
1689042601.5956361,70
1689042601.6456323,63
1689042601.6956322,57
1689042601.7466352,53
1689042601.795631,47
1689042601.8316307,35
1689042601.8816304,26
1689042601.9316351,12
1689042601.9816346,4
1689042602.0316339,3
1689042602.0816302,6
1689042602.1316304,9
1689042602.1816297,12
1689042602.2316341,14
1689042602.2816288,20
1689042602.3316333,42
1689042602.3816333,73
1689042602.431629,83
1689042602.4816291,75
1689042602.5316284,66
1689042602.5816293,60
1689042602.631629,60
1689042602.6816316,59
1689042602.7316294,53
1689042602.7816286,45
1689042602.8316329,39
1689042602.8816288,35
1689042602.9316287,34
1689042602.9816282,32
1689042603.0426285,30
1689042603.0926282,26
1689042603.142632,20
1689042603.1946332,23
1689042603.2446275,48
1689042603.292632,58
1689042603.34263,51
1689042603.392628,45
1689042603.4426267,42
1689042603.492627,39
1689042603.5426278,39
1689042603.5926278,37
1689042603.642631,32
1689042603.6926262,27
1689042603.7426317,24
1689042603.7926278,24
1689042603.8316286,27
1689042603.876626,29
1689042603.926627,31
1689042603.9766307,36
1689042604.0266268,53
1689042604.0766282,63
1689042604.1266267,70
1689042604.1766303,64
1689042604.2266307,57
1689042604.2766254,53
1689042604.326627,51
1689042604.3766265,48
1689042604.426626,42
1689042604.4767036,36
1689042604.52663,31
1689042604.5766306,28
1689042604.6266258,27
1689042604.6766315,26
1689042604.726694,23
1689042604.7766843,21
1689042604.8266258,20
1689042604.8596294,36
1689042604.9096293,46
1689042604.9596255,61
1689042605.0096252,59
1689042605.059627,55
1689042605.1096268,54
1689042605.1596296,51
1689042605.2096245,48
1689042605.2596242,46
1689042605.3096302,41
1689042605.3606253,37
1689042605.4096282,32
1689042605.459624,30
1689042605.509628,29
1689042605.5596287,28
1689042605.6096246,26
1689042605.659624,24
1689042605.7096264,23
1689042605.7596242,30
1689042605.809698,44
1689042605.8436275,52
1689042605.8986263,51
1689042605.9487062,50
1689042605.9986234,49
1689042606.0596232,54
1689042606.109628,48
1689042606.1596236,42
1689042606.209627,35
1689042606.2596228,27
1689042606.3096228,23
1689042606.3596227,20
1689042606.4096267,18
1689042606.459624,15
1689042606.509624,11
1689042606.5596237,6
1689042606.6096265,2
1689042606.6596222,13
1689042606.7096267,39
1689042606.7596223,50
1689042606.8096254,44
1689042606.843626,40
1689042606.893621,39
1689042606.9433894,34
1689042606.9941638,30
1689042607.0461679,25
1689042607.0941622,14
1689042607.1441653,0
1689042607.1941614,0
1689042607.2441607,0
1689042607.2941673,0
1689042607.3441615,0
1689042607.3941631,0
1689042607.4441621,0
1689042607.4941604,0
1689042607.5441616,0
1689042607.5951612,4
1689042607.644165,15
1689042607.6941645,5
1689042607.7441647,0
1689042607.79416,0
1689042607.8331606,0
1689042607.8771625,0
1689042607.9271603,0
1689042607.9771643,0
1689042608.027162,0
1689042608.0771646,0
1689042608.127164,0
1689042608.177238,0
1689042608.2271595,0
1689042608.277159,0
1689042608.3271587,0
1689042608.3771589,11
1689042608.4271586,28
1689042608.4771607,22
1689042608.5271611,8
1689042608.5771601,0
1689042608.627159,0
1689042608.6771634,13
1689042608.7272182,15
1689042608.777159,10
1689042608.827163,4
1689042608.8611646,1
1689042608.9111633,1
1689042608.9611585,2
1689042609.011158,3
1689042609.061161,15
1689042609.1111586,40
1689042609.161162,54
1689042609.2112074,48
1689042609.2611601,40
1689042609.3111582,32
1689042609.361163,28
1689042609.411223,31
1689042609.4611578,33
1689042609.5111575,30
1689042609.5612218,23
1689042609.6111627,17
1689042609.661157,15
1689042609.7111614,17
1689042609.7612207,18
1689042609.8121572,30
1689042609.8441625,53
1689042609.8941584,63
1689042609.944157,59
1689042609.9942176,51
1689042610.0441573,45
1689042610.0941558,39
1689042610.1441605,37
1689042610.1941576,39
1689042610.2441576,35
1689042610.2941568,28
1689042610.3441565,22
1689042610.39422,20
1689042610.4441602,20
1689042610.49416,19
1689042610.545156,22
1689042610.5951622,41
1689042610.6441562,62
1689042610.6941557,62
1689042610.744156,55
1689042610.7941597,51
1689042610.8331556,44
1689042610.8771594,40
1689042610.9271557,41
1689042610.9771554,42
1689042611.0272186,38
1689042611.0771556,31
1689042611.1271553,26
1689042611.1771555,24
1689042611.2272165,23
1689042611.2771537,23
1689042611.3271549,33
1689042611.3771548,59
1689042611.4271536,66
1689042611.4771547,62
1689042611.5271547,56
1689042611.5771549,51
1689042611.627158,45
1689042611.6771545,42
1689042611.7271578,43
1689042611.7771537,40
1689042611.8271575,33
1689042611.8611531,28
1689042611.9111552,27
1689042611.9611547,27
1689042612.0111578,27
1689042612.0611596,27
1689042612.111154,42
1689042612.1611578,67
1689042612.2111533,73
1689042612.2611523,66
1689042612.311154,63
1689042612.361154,58
1689042612.411157,51
1689042612.4612126,50
1689042612.5111518,49
1689042612.5611565,42
1689042612.611153,35
1689042612.6612084,31
1689042612.7111561,29
1689042612.7612188,29
1689042612.8111525,27
1689042612.845156,33
1689042612.8951566,48
1689042612.9442008,73
1689042612.9941525,76
1689042613.044157,69
1689042613.0941556,67
1689042613.144156,62
1689042613.1941516,57
1689042613.2441518,56
1689042613.2941556,51
1689042613.344153,42
1689042613.3942215,35
1689042613.4442198,30
1689042613.494151,27
1689042613.5451517,25
1689042613.594155,23
1689042613.646151,30
1689042613.6941547,56
1689042613.744151,80
1689042613.7941506,78
1689042613.833155,73
1689042613.8782291,71
1689042613.9281511,65
1689042613.9781506,59
1689042614.0281546,58
1689042614.0781505,54
1689042614.1281512,47
1689042614.1781502,39
1689042614.2281525,33
1689042614.27815,29
1689042614.3281536,26
1689042614.3781502,23
1689042614.42815,31
1689042614.4781532,60
1689042614.5281532,84
1689042614.5781498,83
1689042614.6281536,75
1689042614.6781495,70
1689042614.7281528,64
1689042614.7781491,60
1689042614.828149,61
1689042614.8611526,56
1689042614.9111493,50
1689042614.9611506,40
1689042615.0111527,35
1689042615.0611491,32
1689042615.1111486,30
1689042615.161149,27
1689042615.2112076,26
1689042615.2611525,40
1689042615.3111484,80
1689042615.3611524,105
1689042615.4111483,103
1689042615.4611485,97
1689042615.5111475,89
1689042615.561147,59
1689042615.6111467,55
1689042615.6611478,52
1689042615.7111516,46
1689042615.7611525,40
1689042615.811147,36
1689042615.8441477,33
1689042615.894151,32
1689042615.944147,30
1689042615.9941473,28
1689042616.0451462,26
1689042616.0941463,28
1689042616.1461473,42
1689042616.1941504,63
1689042616.2441473,68
1689042616.2941463,64
1689042616.3441465,61
1689042616.394147,58
1689042616.4441466,55
1689042616.494147,54
1689042616.5451458,50
1689042616.5951498,44
1689042616.6451466,38
1689042616.6951463,33
1689042616.7451456,31
1689042616.7951458,29
1689042616.833146,27
1689042616.878146,26
1689042616.9281492,24
1689042616.9781451,30
1689042617.0281456,53
1689042617.0779424,66
1689042617.127944,65
1689042617.1782699,60
1689042617.2282667,56
1689042617.278266,52
1689042617.328265,50
1689042617.3777845,48
1689042617.4276626,43
1689042617.4776635,38
1689042617.5416677,33
1689042617.5916626,29
1689042617.6416664,28
1689042617.6916666,26
1689042617.7416658,25
1689042617.791662,24
1689042617.8326626,28
1689042617.8746626,39
1689042617.924662,61
1689042617.9746623,69
1689042618.0246615,64
1689042618.0777194,58
1689042618.1276655,54
1689042618.177662,52
1689042618.2276638,51
1689042618.2776604,48
1689042618.327663,42
1689042618.377665,37
1689042618.427665,31
1689042618.4776611,28
1689042618.527662,27
1689042618.577665,26
1689042618.6276603,24
1689042618.6776612,25
1689042618.7276626,39
1689042618.777663,61
1689042618.8276606,69
1689042618.8806608,59
1689042618.9306664,55
1689042618.9806643,50
1689042619.03066,49
1689042619.0806649,49
1689042619.13066,45
1689042619.1806633,40
1689042619.2307198,32
1689042619.280659,26
1689042619.330659,23
1689042619.38066,21
1689042619.430659,20
1689042619.4806583,19
1689042619.5306647,20
1689042619.5806584,34
1689042619.6307173,50
1689042619.6806586,48
1689042619.730658,37
1689042619.7807436,27
1689042619.8306613,22
1689042619.8636625,22
1689042619.9136605,24
1689042619.9636626,23
1689042620.0136585,17
1689042620.0636578,11
1689042620.113659,5
1689042620.1636598,3
1689042620.2137372,4
1689042620.2636573,6
1689042620.3136613,12
1689042620.3636618,30
1689042620.4136565,48
1689042620.4636576,53
1689042620.5136611,51
1689042620.563662,51
1689042620.6136613,55
1689042620.6636565,59
1689042620.7146564,58
1689042620.7636614,55
1689042620.8136573,50
1689042620.8476574,45
1689042620.8976567,43
1689042620.9476607,40
1689042620.9976583,40
1689042621.0566568,51
1689042621.105657,76
1689042621.155656,81
1689042621.205445,73
1689042621.2554464,65
1689042621.3054454,59
1689042621.3554451,57
1689042621.4054506,55
1689042621.4554443,50
1689042621.5054448,40
1689042621.5554445,30
1689042621.6054442,20
1689042621.6554446,13
1689042621.7054436,11
1689042621.7554479,19
1689042621.8054457,40
1689042621.8384445,53
1689042621.8884444,53
1689042621.9384475,46
1689042621.9884434,40
1689042622.0444477,38
1689042622.0944488,40
1689042622.144444,42
1689042622.1944432,40
1689042622.2444434,34
1689042622.2944427,28
1689042622.3445094,25
1689042622.394444,25
1689042622.444447,33
1689042622.4954486,53
1689042622.5444417,70
1689042622.5944433,69
1689042622.644443,64
1689042622.6944425,57
1689042622.7444427,52
1689042622.7945046,51
1689042622.833442,50
1689042622.877446,47
1689042622.9274428,40
1689042622.9774456,36
1689042623.027442,32
1689042623.0774407,29
1689042623.1274421,31
1689042623.1774414,51
1689042623.227988,69
1689042623.2779882,70
1689042623.3280518,65
1689042623.3779879,60
1689042623.427983,54
1689042623.4779842,51
1689042623.5429838,49
1689042623.592984,43
1689042623.6429894,37
1689042623.693984,32
1689042623.7429836,29
1689042623.7929878,28
1689042623.833984,34
1689042623.8779871,49
1689042623.9279847,66
1689042623.9779825,67
1689042624.0279818,64
1689042624.0779867,60
1689042624.127982,54
1689042624.177983,50
1689042624.2279823,48
1689042624.2779822,43
1689042624.3279827,38
1689042624.3779817,33
1689042624.4279864,29
1689042624.4780488,28
1689042624.5279822,27
1689042624.577986,35
1689042624.6279814,56
1689042624.6779816,69
1689042624.7279818,67
1689042624.7779815,64
1689042624.8279855,58
1689042624.8619852,52
1689042624.9119852,50
1689042624.9619813,48
1689042625.0119815,43
1689042625.061985,38
1689042625.1119826,32
1689042625.1619813,29
1689042625.2119813,28
1689042625.26198,26
1689042625.3119812,25
1689042625.3619847,31
1689042625.4119852,53
1689042625.4619856,69
1689042625.511982,68
1689042625.57598,63
1689042625.6259804,59
1689042625.6759803,53
1689042625.7259805,51
1689042625.7759793,48
1689042625.825984,42
1689042625.8589838,37
1689042625.9089794,33
1689042625.9589834,29
1689042626.0089788,27
1689042626.0615451,26
1689042626.1115394,23
1689042626.1615434,22
1689042626.2115397,36
1689042626.2625396,60
1689042626.3115392,69
1689042626.361541,65
1689042626.4115396,61
1689042626.4615388,56
1689042626.5395424,50
1689042626.5895426,44
1689042626.6395423,38
1689042626.6895432,31
1689042626.7395382,25
1689042626.7895384,21
1689042626.8335414,18
1689042626.8755438,17
1689042626.9255419,15
1689042626.9765418,14
1689042627.0255377,12
1689042627.078537,10
1689042627.1285386,25
1689042627.1786084,53
1689042627.2285385,60
1689042627.2785404,56
1689042627.3285418,50
1689042627.3785424,45
1689042627.4285374,43
1689042627.4785411,43
1689042627.5425377,40
1689042627.5926003,35
1689042627.6425369,28
1689042627.6925406,23
1689042627.7425406,21
1689042627.7935402,20
1689042627.833537,18
1689042627.8755367,16
1689042627.9255402,18
1689042627.975536,36
1689042628.0255404,56
1689042628.0785363,60
1689042628.1285985,55
1689042628.1785364,49
1689042628.2285419,44
1689042628.2785356,43
1689042628.3285394,44
1689042628.378536,41
1689042628.4285398,36
1689042628.479537,31
1689042628.5285358,28
1689042628.5785353,27
1689042628.628541,26
1689042628.6785352,25
1689042628.728608,23
1689042628.7785401,23
1689042628.828539,37
1689042628.8675385,66
1689042628.9175391,74
1689042628.9675353,72
1689042629.0175345,66
1689042629.0785387,60
1689042629.1285353,54
1689042629.178534,50
1689042629.2285333,46
1689042629.2785354,40
1689042629.3295343,32
1689042629.3785343,26
1689042629.428534,22
1689042629.4785333,20
1689042629.5285375,18
1689042629.5785336,16
1689042629.6285377,14
1689042629.6785326,13
1689042629.7285373,14
1689042629.7785332,36
1689042629.8285942,61
1689042629.861537,67
1689042629.9115372,64
1689042629.9615328,56
1689042630.011537,51
1689042630.0615325,46
1689042630.1115334,45
1689042630.1615362,43
1689042630.2115326,38
1689042630.261601,31
1689042630.3115363,25
1689042630.361532,22
1689042630.4115949,20
1689042630.4615324,20
1689042630.5115323,19
1689042630.575536,17
1689042630.6255357,17
1689042630.6755316,19
1689042630.725536,37
1689042630.7755363,64
1689042630.8255324,74
1689042630.859531,67
1689042630.909535,62
1689042630.9595306,56
1689042631.0095322,52
1689042631.061531,51
1689042631.1115358,49
1689042631.1615307,44
1689042631.2115319,38
1689042631.261535,32
1689042631.311531,28
1689042631.36153,26
1689042631.4115305,24
1689042631.4615352,23
1689042631.5115314,22
1689042631.5615299,20
1689042631.6116018,24
1689042631.661531,46
1689042631.7115352,71
1689042631.7615304,76
1689042631.8115304,68
1689042631.84553,60
1689042631.8955295,56
1689042631.9455307,52
1689042631.9955945,52
1689042632.0455983,51
1689042632.0955334,45
1689042632.1455286,39
1689042632.195598,33
1689042632.245533,29
1689042632.2955294,27
1689042632.345529,27
1689042632.395529,26
1689042632.445528,26
1689042632.4965334,26
1689042632.547533,39
1689042632.5965326,64
1689042632.6455326,78
1689042632.6955287,72
1689042632.7455285,61
1689042632.7955275,53
1689042632.8347821,50
1689042632.8785932,50
1689042632.9285355,50
1689042632.9785316,46
1689042633.0285318,40
1689042633.078532,33
1689042633.1285317,27
1689042633.1785355,23
1689042633.2285354,21
1689042633.2785354,18
1689042633.328531,16
1689042633.3785336,18
1689042633.4285312,36
1689042633.4785933,52
1689042633.5285306,49
1689042633.5785348,37
1689042633.6285348,24
1689042633.6786404,17
1689042633.728531,18
1689042633.7785296,22
1689042633.828535,19
1689042633.8615303,13
1689042633.9125307,8
1689042633.9625304,3
1689042634.0125337,0
1689042634.062604,0
1689042634.1125472,0
1689042634.162534,8
1689042634.212529,29
1689042634.2625299,47
1689042634.3125331,48
1689042634.3625965,39
1689042634.4125347,27
1689042634.4625287,21
1689042634.5125296,27
1689042634.5755296,39
1689042634.6255295,39
1689042634.6755307,35
1689042634.7255309,30
1689042634.7765324,25
1689042634.826532,19
1689042634.8595328,17
1689042634.912533,25
1689042634.9625282,50
1689042635.012529,69
1689042635.0625274,68
1689042635.1135278,57
1689042635.162529,46
1689042635.2125282,40
1689042635.262528,44
1689042635.3125315,49
1689042635.3625286,47
1689042635.4125266,41
1689042635.4625275,35
1689042635.5125313,31
1689042635.562527,30
1689042635.6125321,32
1689042635.6625311,47
1689042635.712531,72
1689042635.7625265,83
1689042635.8125274,78
1689042635.8455305,69
1689042635.9015274,61
1689042635.9515328,55
1689042636.0015314,55
1689042636.0625267,55
1689042636.1125305,48
1689042636.1625264,40
1689042636.2125266,35
1689042636.2625268,33
1689042636.312527,32
1689042636.3625264,39
1689042636.4125915,60
1689042636.4625258,80
1689042636.5125296,82
1689042636.5625257,76
1689042636.6125271,69
1689042636.662525,61
1689042636.7125258,56
1689042636.7625263,54
1689042636.8125274,49
1689042636.845529,42
1689042636.9015296,37
1689042636.951527,31
1689042637.0015259,29
1689042637.062529,27
1689042637.1125262,33
1689042637.1625257,53
1689042637.2125285,71
1689042637.2625263,72
1689042637.3125248,67
1689042637.3625245,61
1689042637.4125924,54
1689042637.4625244,51
1689042637.5125256,49
1689042637.576524,43
1689042637.6265278,38
1689042637.6765282,32
1689042637.7265244,28
1689042637.7765274,27
1689042637.8265252,27
1689042637.8675275,36
1689042637.9175239,53
1689042637.9675233,70
1689042638.017527,71
1689042638.067523,67
1689042638.1175244,61
1689042638.167527,55
1689042638.2175267,51
1689042638.267523,49
1689042638.317523,45
1689042638.367523,39
1689042638.4175231,33
1689042638.4675226,29
1689042638.5175264,27
1689042638.5675263,26
1689042638.617528,26
1689042638.667522,37
1689042638.7175267,60
1689042638.7675223,72
1689042638.8175225,69
1689042638.8685224,65
1689042638.9175222,58
1689042638.9685214,53
1689042639.0185208,51
1689042639.0765214,47
1689042639.126523,40
1689042639.1765258,34
1689042639.226525,30
1689042639.2765257,27
1689042639.326525,26
1689042639.3765247,24
1689042639.4265206,28
1689042639.4765213,48
1689042639.5265248,69
1689042639.5765207,72
1689042639.6265206,67
1689042639.676521,62
1689042639.7265205,55
1689042639.7765195,50
1689042639.8265207,48
1689042639.8655243,44
1689042639.9155192,39
1689042639.9655204,32
1689042640.0155203,27
1689042640.0655217,24
1689042640.115524,22
1689042640.1655204,21
1689042640.21552,20
1689042640.2655246,33
1689042640.3155715,59
1689042640.3655198,72
1689042640.4155197,69
1689042640.4655197,64
1689042640.515523,58
1689042640.5655193,52
1689042640.615525,49
1689042640.6655226,46
1689042640.715519,41
1689042640.7655191,34
1689042640.8155203,28
1689042640.8485181,24
1689042640.8985186,23
1689042640.9485185,22
1689042640.9985185,20
1689042641.0485187,19
1689042641.0985198,28
1689042641.1485224,54
1689042641.1985345,72
1689042641.2485182,70
1689042641.298518,64
1689042641.3485174,58
1689042641.3995216,52
1689042641.4485176,48
1689042641.4985168,46
1689042641.5485177,40
1689042641.5985193,33
1689042641.6485214,27
1689042641.6985176,23
1689042641.7485166,21
1689042641.7985213,20
1689042641.8345177,18
1689042641.8825173,17
1689042641.932516,16
1689042641.9827597,31
1689042642.0328867,60
1689042642.0828812,75
1689042642.1328814,71
1689042642.1828802,65
1689042642.2328813,59
1689042642.2828858,53
1689042642.3328848,49
1689042642.382881,46
1689042642.4328814,40
1689042642.48288,33
1689042642.5328846,27
1689042642.58288,23
1689042642.6328855,21
1689042642.6828852,19
1689042642.7328837,17
1689042642.782884,15
1689042642.83288,13
1689042642.8658857,18
1689042642.9158812,34
1689042642.965884,66
1689042643.0158794,78
1689042643.0659406,71
1689042643.1158836,64
1689042643.165945,58
1689042643.2158833,52
1689042643.2658782,49
1689042643.3158789,45
1689042643.3658793,39
1689042643.4158833,31
1689042643.4659395,24
1689042643.515878,20
1689042643.5658798,18
1689042643.6158783,17
1689042643.6658802,16
1689042643.7158782,14
1689042643.765882,13
1689042643.8158822,18
1689042643.8488789,45
1689042643.8988822,66
1689042643.9488773,78
1689042643.9988782,70
1689042644.048883,62
1689042644.0988815,55
1689042644.148878,50
1689042644.1988783,48
1689042644.248877,44
1689042644.2988818,38
1689042644.348877,29
1689042644.3988786,22
1689042644.4488764,18
1689042644.498881,16
1689042644.549877,15
1689042644.5998778,14
1689042644.649878,12
1689042644.6998804,10
1689042644.7498765,13
1689042644.799882,37
1689042644.8358755,67
1689042644.8828766,74
1689042644.9328802,68
1689042644.9828758,58
1689042645.0328755,50
1689042645.0828803,46
1689042645.1328766,46
1689042645.18288,44
1689042645.2328796,38
1689042645.2828767,30
1689042645.3328762,23
1689042645.3828754,19
1689042645.4328797,17
1689042645.4828756,16
1689042645.5328796,15
1689042645.5828795,13
1689042645.6328752,12
1689042645.682875,23
1689042645.732874,53
1689042645.78333,75
1689042645.8330302,73
1689042645.865975,63
1689042645.9159722,57
1689042645.9659717,50
1689042646.0159707,48
1689042646.066033,48
1689042646.1159704,44
1689042646.165971,37
1689042646.2159698,30
1689042646.2659698,24
1689042646.3159716,21
1689042646.3659692,20
1689042646.415971,19
1689042646.4659705,18
1689042646.5160062,16
1689042646.5659711,15
1689042646.6159694,25
1689042646.665969,55
1689042646.7159734,80
1689042646.76597,79
1689042646.8159688,68
1689042646.8499694,59
1689042646.8999734,54
1689042646.9499686,52
1689042646.999969,52
1689042647.0499742,48
1689042647.0999734,40
1689042647.1499686,33
1689042647.1999705,27
1689042647.2499697,24
1689042647.2999675,23
1689042647.3499677,23
1689042647.3999686,22
1689042647.44997,21
1689042647.4999738,20
1689042647.549972,24
1689042647.599968,49
1689042647.6499681,80
1689042647.699968,85
1689042647.749967,74
1689042647.7999728,64
1689042647.8359678,58
1689042647.8829696,56
1689042647.9329715,56
1689042647.9829724,52
1689042648.032967,45
1689042648.082967,38
1689042648.1329665,31
1689042648.182968,29
1689042648.232967,28
1689042648.2829123,28
1689042648.332911,26
1689042648.382911,25
1689042648.4329152,23
1689042648.4829109,25
1689042648.532911,45
1689042648.5829153,81
1689042648.6329105,95
1689042648.682912,86
1689042648.7329109,74
1689042648.7829118,66
1689042648.8329108,63
1689042648.866911,63
1689042648.9169106,61
1689042648.9669108,53
1689042649.0169096,45
1689042649.0669103,39
1689042649.1169114,35
1689042649.166914,33
1689042649.2171733,32
1689042649.2671735,32
1689042649.317179,30
1689042649.3671744,28
1689042649.4171774,33
1689042649.4671779,58
1689042649.5171735,83
1689042649.5671737,81
1689042649.617173,68
1689042649.667178,58
1689042649.7171733,54
1689042649.7671728,55
1689042649.8171768,55
1689042649.8501732,49
1689042649.905177,42
1689042649.9551725,36
1689042650.0051782,31
1689042650.0641825,29
1689042650.1141732,28
1689042650.1641731,27
1689042650.2141726,26
1689042650.2641726,27
1689042650.3141725,43
1689042650.3641732,67
1689042650.414172,70
1689042650.4641721,55
1689042650.5141757,42
1689042650.5641718,36
1689042650.6141725,34
1689042650.664172,35
1689042650.7141724,30
1689042650.7641723,22
1689042650.814177,12
1689042650.8471725,5
1689042650.903171,0
1689042650.9531717,0
1689042651.0031705,0
1689042651.0641713,0
1689042651.1141708,6
1689042651.1641726,33
1689042651.214171,50
1689042651.2641716,45
1689042651.3141706,31
1689042651.36417,18
1689042651.4141695,19
1689042651.4641047,29
1689042651.5143332,34
1689042651.5637958,29
1689042651.6137967,19
1689042651.6637957,9
1689042651.7138002,1
1689042651.7638,0
1689042651.8137994,0
1689042651.8697994,19
1689042651.9198961,49
1689042651.9699016,54
1689042652.0199,43
1689042652.0779002,24
1689042652.1278958,14
1689042652.1779,22
1689042652.2278957,36
1689042652.2779,39
1689042652.327895,34
1689042652.3778949,27
1689042652.427388,24
1689042652.477613,27
1689042652.5276127,36
1689042652.5776174,58
1689042652.6276128,85
1689042652.6776168,92
1689042652.7276125,82
1689042652.7776124,70
1689042652.8276167,61
1689042652.8606172,57
1689042652.9106119,57
1689042652.960612,54
1689042653.0106118,46
1689042653.0642054,37
1689042653.1140916,29
1689042653.1640913,25
1689042653.2140965,23
1689042653.2640924,28
1689042653.3140907,47
1689042653.364091,64
1689042653.4140959,62
1689042653.4640906,55
1689042653.514091,48
1689042653.5640914,43
1689042653.6140997,41
1689042653.6640906,42
1689042653.7140906,39
1689042653.763384,33
1689042653.8134124,28
1689042653.8464592,26
1689042653.8972435,25
1689042653.9472497,27
1689042653.9972441,40
1689042654.0472484,59
1689042654.0972433,66
1689042654.1472483,62
1689042654.1972432,59
1689042654.2482424,53
1689042654.298247,48
1689042654.3476932,47
1689042654.3979468,45
1689042654.447951,40
1689042654.4977276,35
1689042654.5611694,31
1689042654.611169,29
1689042654.661174,28
1689042654.711169,34
1689042654.7606783,44
1689042654.810674,59
1689042654.8446782,61
1689042654.8946788,58
1689042654.9446778,55
1689042654.994673,49
1689042655.0476727,44
1689042655.0976777,43
1689042655.1476731,40
1689042655.1976724,36
1689042655.247273,31
1689042655.2975137,27
1689042655.3475125,25
1689042655.3975124,25
1689042655.4475126,24
1689042655.498513,26
1689042655.5485125,42
1689042655.5975125,57
1689042655.6475112,59
1689042655.6975124,57
1689042655.7480736,54
1689042655.7980719,49
1689042655.8360724,47
1689042655.8810723,46
1689042655.931072,43
1689042655.9810724,39
1689042656.0310721,34
1689042656.081072,32
1689042656.1310723,29
1689042656.1810718,28
1689042656.2310722,27
1689042656.2810724,26
1689042656.3310761,40
1689042656.381071,57
1689042656.431076,62
1689042656.4810715,60
1689042656.5310752,60
1689042656.5810716,56
1689042656.6310759,51
1689042656.6810758,48
1689042656.7310717,45
1689042656.7810755,40
1689042656.8310704,35
1689042656.8640714,31
1689042656.9140708,29
1689042656.9640718,27
1689042657.0140758,25
1689042657.0640702,23
1689042657.1140716,20
1689042657.1640744,22
1689042657.2140708,38
1689042657.26407,54
1689042657.3140707,57
1689042657.3640697,56
1689042657.4140701,55
1689042657.4640694,51
1689042657.5140753,47
1689042657.5780697,44
1689042657.6280699,41
1689042657.6780696,37
1689042657.7280738,32
1689042657.778074,30
1689042657.8280733,28
1689042657.8620684,26
1689042657.9120693,25
1689042657.9620736,23
1689042658.0120692,25
1689042658.064069,40
1689042658.1140685,56
1689042658.164073,59
1689042658.2140682,57
1689042658.2640727,55
1689042658.3140683,51
1689042658.364068,48
1689042658.4140692,46
1689042658.4640732,43
1689042658.5140684,39
1689042658.564068,33
1689042658.6140683,28
1689042658.6640673,26
1689042658.7140722,24
1689042658.7640722,22
1689042658.8140674,20
1689042658.8670716,18
1689042658.9170678,27
1689042658.9670672,47
1689042659.0170674,59
1689042659.0670714,57
1689042659.1170712,56
1689042659.1670713,53
1689042659.217067,49
1689042659.267071,47
1689042659.317067,45
1689042659.3670714,40
1689042659.417066,35
1689042659.4670663,29
1689042659.5170665,26
1689042659.5670657,23
1689042659.6170657,21
1689042659.6670663,19
1689042659.7170656,18
1689042659.7670715,16
1689042659.8170655,23
1689042659.8510702,44
1689042659.90607,58
1689042659.956071,63
1689042660.006065,60
1689042660.065065,59
1689042660.1150708,54
1689042660.16507,51
1689042660.2150652,49
1689042660.2650697,45
1689042660.3150647,39
1689042660.365065,32
1689042660.4150693,28
1689042660.465069,25
1689042660.5150647,24
1689042660.5650651,22
1689042660.6150646,20
1689042660.6650648,18
1689042660.7150688,17
1689042660.765065,21
1689042660.815064,41
1689042660.8480682,63
1689042660.9040637,66
1689042660.9540637,60
1689042661.0035207,55
1689042661.0652146,51
1689042661.1152196,47
1689042661.1652195,46
1689042661.2152154,42
1689042661.265215,36
1689042661.3152153,30
1689042661.365215,25
1689042661.4152148,24
1689042661.4652145,23
1689042661.5152147,23
1689042661.565219,22
1689042661.6152139,21
1689042661.6652188,20
1689042661.7152143,36
1689042661.7652166,61
1689042661.8152132,72
1689042661.8482134,67
1689042661.8978415,63
1689042661.9481058,56
1689042661.9981046,49
1689042662.0491056,45
1689042662.097881,42
1689042662.1478765,38
1689042662.1974642,32
1689042662.247679,26
1689042662.297522,23
1689042662.3475223,21
1689042662.397522,22
1689042662.4475224,22
1689042662.4975226,22
1689042662.5475214,21
1689042662.598522,21
1689042662.6485262,36
1689042662.6975274,63
1689042662.7475216,75
1689042662.7975209,69
1689042662.8369896,61
1689042662.8841429,55
1689042662.9341474,47
1689042662.9841473,44
1689042663.0341473,42
1689042663.084147,37
1689042663.1341515,30
1689042663.1841624,23
1689042663.2341473,20
1689042663.2841468,19
1689042663.3341465,20
1689042663.3841462,21
1689042663.4341185,21
1689042663.4838476,20
1689042663.5338478,26
1689042663.583843,47
1689042663.6338487,72
1689042663.6838434,76
1689042663.7338428,67
1689042663.783847,57
1689042663.8338428,50
1689042663.867848,48
1689042663.9178472,48
1689042663.967847,45
1689042664.0178428,38
1689042664.067843,27
1689042664.1178432,19
1689042664.1681366,14
1689042664.2175307,11
1689042664.2675295,11
1689042664.3185294,10
1689042664.3675292,11
1689042664.4176571,12
1689042664.4677467,18
1689042664.5177507,43
1689042664.5677469,75
1689042664.6177506,85
1689042664.6677506,76
1689042664.7177505,64
1689042664.7677505,54
1689042664.8179967,52
1689042664.850997,53
1689042664.9009924,51
1689042664.9509923,42
1689042665.0009925,32
1689042665.0509975,19
1689042665.1009965,8
1689042665.1509917,1
1689042665.2009916,0
1689042665.2507815,1
1689042665.300806,4
1689042665.350946,7
1689042665.4009464,20
1689042665.450951,54
1689042665.5009456,85
1689042665.5509462,90
1689042665.600946,80
1689042665.650946,69
1689042665.7009459,61
1689042665.7509463,60
1689042665.8009462,60
1689042665.8369448,55
1689042665.8866363,50
1689042665.937068,41
1689042665.987063,36
1689042666.0473826,32
1689042666.0976365,31
1689042666.14764,30
1689042666.1976366,28
1689042666.2476406,26
1689042666.2996356,33
1689042666.3476398,60
1689042666.3996353,85
1689042666.447636,87
1689042666.4976413,77
1689042666.5487804,68
1689042666.597283,60
1689042666.6482244,56
1689042666.6982234,55
1689042666.748228,50
1689042666.7992227,42
1689042666.836548,35
1689042666.8820817,31
1689042666.9320774,28
1689042666.9820766,27
1689042667.0320764,27
1689042667.082081,27
1689042667.1320763,26
1689042667.1820807,29
1689042667.2320764,55
1689042667.2820804,80
1689042667.3320763,87
1689042667.3820775,79
1689042667.4320757,72
1689042667.4820828,66
1689042667.5320754,61
1689042667.5820758,59
1689042667.6320755,54
1689042667.6820798,47
1689042667.7320755,40
1689042667.7820802,35
1689042667.832076,31
1689042667.8700757,30
1689042667.9180799,29
1689042667.9680753,27
1689042668.0180795,26
1689042668.0680754,30
1689042668.1180794,53
1689042668.1680748,81
1689042668.218079,86
1689042668.268079,78
1689042668.3180747,71
1689042668.3680797,65
1689042668.4180763,62
1689042668.4680746,60
1689042668.5180788,55
1689042668.568074,47
1689042668.6180794,40
1689042668.6680784,36
1689042668.7180765,32
1689042668.7680786,30
1689042668.8180735,28
1689042668.8510733,26
1689042668.9070778,25
1689042668.957078,29
1689042669.0070732,52
1689042669.065078,66
1689042669.115073,59
1689042669.1650777,48
1689042669.215073,40
1689042669.2644064,35
1689042669.3144128,31
1689042669.3654122,28
1689042669.4144127,23
1689042669.4644134,18
1689042669.5144124,13
1689042669.5644124,9
1689042669.6144123,6
1689042669.6654189,4
1689042669.714412,3
1689042669.7644114,9
1689042669.8144124,28
1689042669.8484118,42
1689042669.8984118,42
1689042669.948411,34
1689042669.998412,23
1689042670.0484114,20
1689042670.0994112,28
1689042670.1484118,37
1689042670.198411,37
1689042670.2484117,33
1689042670.2984118,32
1689042670.3484108,32
1689042670.3984106,31
1689042670.4484103,29
1689042670.5004117,35
1689042670.5494113,58
1689042670.5984106,77
1689042670.6494105,76
1689042670.6984103,64
1689042670.7491279,51
1689042670.7985756,40
1689042670.837733,37
1689042670.8821936,36
1689042670.9316165,33
1689042670.9819672,27
1689042671.0319717,20
1689042671.0819674,15
1689042671.1319668,16
1689042671.1819706,18
1689042671.2319665,24
1689042671.281966,43
1689042671.3320346,68
1689042671.3821294,74
1689042671.4321249,65
1689042671.4815,56
1689042671.5314984,49
1689042671.5814984,48
1689042671.6315012,49
1689042671.6814983,44
1689042671.731498,36
1689042671.7814987,27
1689042671.831498,19
1689042671.865498,13
1689042671.915498,10
1689042671.9654975,8
1689042672.0154977,24
1689042672.067498,53
1689042672.1174982,67
1689042672.1674974,63
1689042672.217497,56
1689042672.2678223,49
1689042672.3173046,46
1689042672.3679283,47
1689042672.417363,47
1689042672.4681,41
1689042672.5180962,34
1689042672.5680952,27
1689042672.6180959,24
1689042672.6680958,23
1689042672.7181,33
1689042672.768113,56
1689042672.8180957,67
1689042672.8520956,60
1689042672.9021006,54
1689042672.952095,46
1689042673.0020993,39
1689042673.0520947,36
1689042673.1020992,37
1689042673.1520953,38
1689042673.202095,35
1689042673.2520947,31
1689042673.302095,27
1689042673.3517091,25
1689042673.4020934,24
1689042673.4520924,33
1689042673.5020974,56
1689042673.552093,70
1689042673.6020923,67
1689042673.6520922,61
1689042673.702097,53
1689042673.7520924,43
1689042673.8020966,39
1689042673.8382015,36
1689042673.8849068,33
1689042673.934907,26
1689042673.9849064,19
1689042674.0349061,16
1689042674.0849066,19
1689042674.13491,22
1689042674.184911,27
1689042674.2349102,45
1689042674.2849054,66
1689042674.3349066,70
1689042674.384906,65
1689042674.43491,60
1689042674.4849055,52
1689042674.5499072,47
1689042674.5989096,46
1689042674.6489105,42
1689042674.6990314,36
1689042674.7490313,27
1689042674.7990308,20
1689042674.8380313,15
1689042674.8820312,14
1689042674.9317667,12
1689042674.9813068,15
1689042675.0320334,40
1689042675.0846906,64
1689042675.1346908,70
1689042675.1846907,68
1689042675.2346854,64
1689042675.284686,57
1689042675.334477,51
1689042675.3844774,49
1689042675.434478,45
1689042675.4844778,38
1689042675.534477,31
1689042675.584477,27
1689042675.6344771,25
1689042675.6844769,23
1689042675.734476,20
1689042675.7848966,21
1689042675.8351278,38
1689042675.8691278,62
1689042675.9187777,69
1689042675.9687312,66
1689042676.0187361,60
1689042676.068736,51
1689042676.118736,42
1689042676.168731,40
1689042676.218731,40
1689042676.2688165,36
1689042676.3188212,30
1689042676.368821,25
1689042676.418817,22
1689042676.4688213,21
1689042676.5188165,20
1689042676.568821,19
1689042676.6188204,20
1689042676.6688163,37
1689042676.7188168,64
1689042676.7688155,75
1689042676.8188293,70
1689042676.8518162,63
1689042676.90182,57
1689042676.9518206,48
1689042677.00182,43
1689042677.0518198,41
1689042677.10182,36
1689042677.1518226,28
1689042677.2018194,22
1689042677.2518146,19
1689042677.3018193,18
1689042677.3518145,19
1689042677.4018164,19
1689042677.4518151,17
1689042677.5018194,26
1689042677.5518148,52
1689042677.6018143,71
1689042677.651814,69
1689042677.7018144,62
1689042677.7518144,55
1689042677.801814,47
1689042677.8375096,44
1689042677.8845265,43
1689042677.9347012,40
1689042677.9845521,33
1689042678.0355523,25
1689042678.085552,20
1689042678.135552,18
1689042678.1855628,18
1689042678.2355533,17
1689042678.2855508,14
1689042678.3352823,15
1689042678.385323,34
1689042678.4353235,62
1689042678.4853234,71
1689042678.5353234,65
1689042678.585323,58
1689042678.635323,51
1689042678.6853232,45
1689042678.735323,45
1689042678.7853224,43
1689042678.8356235,37
1689042678.8688412,30
1689042678.9188457,26
1689042678.9688401,24
1689042679.018841,22
1689042679.0688398,21
1689042679.1188447,20
1689042679.1688447,19
1689042679.2188406,32
1689042679.26884,63
1689042679.318845,85
1689042679.3688402,85
1689042679.4188442,77
1689042679.46884,70
1689042679.5188398,62
1689042679.5688393,58
1689042679.618983,54
1689042679.6686423,47
1689042679.7190866,40
1689042679.769082,32
1689042679.819087,27
1689042679.8520863,26
1689042679.9020822,26
1689042679.9520822,25
1689042680.0020862,23
1689042680.0520818,24
1689042680.102082,43
1689042680.1520815,75
1689042680.2020812,86
1689042680.2520819,77
1689042680.3020864,66
1689042680.3520813,57
1689042680.4020808,51
1689042680.4520855,49
1689042680.5020814,46
1689042680.5520825,39
1689042680.6020806,31
1689042680.652085,24
1689042680.7020855,21
1689042680.7520852,19
1689042680.8020802,19
1689042680.838081,19
1689042680.8860803,19
1689042680.93608,24
1689042680.9860795,50
1689042681.0360844,81
1689042681.0910797,84
1689042681.1410804,74
1689042681.1910849,61
1689042681.241081,52
1689042681.2910793,48
1689042681.3410845,47
1689042681.3910837,43
1689042681.441084,36
1689042681.4910839,28
1689042681.5410795,23
1689042681.5910842,20
1689042681.6410797,20
1689042681.6910834,19
1689042681.7410793,20
1689042681.7910798,20
1689042681.8390787,30
1689042681.8770788,48
1689042681.9270782,85
1689042681.977078,88
1689042682.0270789,75
1689042682.080079,63
1689042682.1300828,56
1689042682.1800778,53
1689042682.2300785,53
1689042682.2793941,49
1689042682.3296444,41
1689042682.379792,34
1689042682.4297955,28
1689042682.479791,24
1689042682.5447905,22
1689042682.5937905,20
1689042682.6437926,18
1689042682.6937954,18
1689042682.7437909,37
1689042682.7937915,66
1689042682.8387907,74
1689042682.8797956,66
1689042682.9297907,49
1689042682.9797912,35
1689042683.0297952,27
1689042683.0827947,27
1689042683.1327946,27
1689042683.1827905,19
1689042683.2327895,6
1689042683.282794,0
1689042683.3327942,0
1689042683.3827891,0
1689042683.4327896,0
1689042683.4827902,0
1689042683.5327935,7
1689042683.5857892,38
1689042683.6357899,68
1689042683.6857932,72
1689042683.735789,59
1689042683.785349,43
1689042683.835892,35
1689042683.8682613,40
1689042683.91827,44
1689042683.969271,44
1689042684.0182703,36
1689042684.069134,23
1689042684.119206,9
1689042684.169206,0
1689042684.2192063,0
1689042684.2692041,0
1689042684.3192055,6
1689042684.3692045,43
1689042684.419204,52
1689042684.469205,41
1689042684.5192053,24
1689042684.5692039,8
1689042684.6184118,7
1689042684.6691074,24
1689042684.7191112,39
1689042684.7691119,39
1689042684.8191113,34
1689042684.853111,28
1689042684.903107,25
1689042684.9529908,22
1689042685.0022855,35
1689042685.0547862,68
1689042685.1026056,90
1689042685.1526175,87
1689042685.202712,72
1689042685.2525024,56
1689042685.3025022,44
1689042685.352503,42
1689042685.4025018,43
1689042685.4525018,40
1689042685.5025024,33
1689042685.5525017,26
1689042685.6025016,21
1689042685.6525059,20
1689042685.7025006,32
1689042685.7525015,63
1689042685.8029323,86
1689042685.8390386,86
1689042685.8854105,79
1689042685.9354186,69
1689042685.9854102,59
1689042686.0354102,55
1689042686.0858152,55
1689042686.1358192,52
1689042686.1858149,45
1689042686.2358143,39
1689042686.2858143,33
1689042686.3358238,29
1689042686.385821,35
1689042686.435814,63
1689042686.4858136,81
1689042686.5358138,80
1689042686.585814,74
1689042686.6358192,67
1689042686.685818,57
1689042686.7358134,51
1689042686.7858129,50
1689042686.835173,45
1689042686.8686938,38
1689042686.9186893,33
1689042686.96869,27
1689042687.0196934,24
1689042687.0696893,27
1689042687.119689,46
1689042687.1696935,68
1689042687.2196887,72
1689042687.2696886,66
1689042687.3196888,59
1689042687.3701055,49
1689042687.4201076,42
1689042687.4700992,40
1689042687.5480998,36
1689042687.5971038,25
1689042687.6471004,19
1689042687.6970997,16
1689042687.7470992,15
1689042687.797099,15
1689042687.8390987,28
1689042687.881099,45
1689042687.930567,64
1689042687.9807074,66
1689042688.0307095,63
1689042688.084255,57
1689042688.1338978,48
1689042688.18385,44
1689042688.23385,42
1689042688.283846,38
1689042688.3338456,31
1689042688.3838449,26
1689042688.4338493,22
1689042688.4838445,21
1689042688.5338502,21
1689042688.5838451,20
1689042688.6338496,19
1689042688.6838493,36
1689042688.7338443,61
1689042688.783196,70
1689042688.8338044,69
1689042688.8715334,66
1689042688.922192,60
1689042688.9721909,51
1689042689.022191,47
1689042689.0811868,43
1689042689.1311862,39
1689042689.1811876,32
1689042689.231186,26
1689042689.28095,24
1689042689.3301857,23
1689042689.380763,22
1689042689.430549,21
1689042689.4804323,20
1689042689.5304317,29
1689042689.5804331,52
1689042689.6304324,70
1689042689.6804318,70
1689042689.7304323,67
1689042689.780432,61
1689042689.83077,53
1689042689.8697805,49
1689042689.9197793,48
1689042689.9693742,43
1689042690.019644,36
1689042690.0696385,30
1689042690.1196377,25
1689042690.1696377,23
1689042690.219638,21
1689042690.2696373,20
1689042690.31964,18
1689042690.369638,18
1689042690.4196372,35
1689042690.469337,60
1689042690.5193584,69
1689042690.583359,63
1689042690.6333578,59
1689042690.6837873,53
1689042690.733764,47
1689042690.7839758,45
1689042690.8342395,41
1689042690.8667443,35
1689042690.9165194,30
1689042690.9670026,24
1689042691.016488,21
1689042691.0670328,19
1689042691.1170328,18
1689042691.167028,15
1689042691.2170281,14
1689042691.2670329,12
1689042691.317028,22
1689042691.367028,49
1689042691.4170291,68
1689042691.4664896,67
1689042691.516447,62
1689042691.566287,57
1689042691.6164472,50
1689042691.666933,48
1689042691.7169325,46
1689042691.7669375,40
1689042691.8169372,33
1689042691.8499322,26
1689042691.899937,23
1689042691.9509325,20
1689042692.0009367,19
1689042692.0499325,18
1689042692.1009321,16
1689042692.1509366,13
1689042692.201934,22
1689042692.251936,49
1689042692.3019364,70
1689042692.3509316,71
1689042692.400936,66
1689042692.4509315,61
1689042692.5009315,55
1689042692.5509317,52
1689042692.6002996,49
1689042692.6511707,44
1689042692.70109,37
1689042692.7504036,30
1689042692.8004036,27
1689042692.8384032,24
1689042692.8834033,23
1689042692.9334033,21
1689042692.9834034,19
1689042693.0334032,18
1689042693.0834033,19
1689042693.1334033,40
1689042693.1834023,72
1689042693.234014,78
1689042693.283416,73
1689042693.3334162,67
1689042693.3834157,61
1689042693.4334154,55
1689042693.4834158,52
1689042693.5334158,48
1689042693.5834153,41
1689042693.6334152,34
1689042693.683415,27
1689042693.7334156,24
1689042693.783415,22
1689042693.8334148,21
1689042693.866415,19
1689042693.916415,18
1689042693.9664156,16
1689042694.0164785,15
1689042694.0668533,22
1689042694.1163113,49
1689042694.1663117,76
1689042694.2163122,78
1689042694.266311,69
1689042694.3171284,61
1689042694.3667288,55
1689042694.416337,51
1689042694.4663374,49
1689042694.516337,44
1689042694.5663369,37
1689042694.6163368,29
1689042694.666337,23
1689042694.7163365,20
1689042694.7663364,19
1689042694.8163362,18
1689042694.8503358,17
1689042694.9003358,15
1689042694.9503355,13
1689042695.000425,12
1689042695.0550086,18
1689042695.1040082,51
1689042695.1540086,76
1689042695.2040079,75
1689042695.2540138,65
1689042695.304008,58
1689042695.3540092,53
1689042695.4040122,51
1689042695.4540074,49
1689042695.5038111,43
1689042695.5537975,36
1689042695.6039844,29
1689042695.654051,24
1689042695.704047,21
1689042695.7540467,20
1689042695.8040507,20
1689042695.840051,18
1689042695.8870466,17
1689042695.9370465,16
1689042695.9870508,16
1689042696.0370462,36
1689042696.0870502,68
1689042696.1370456,83
1689042696.1870503,74
1689042696.2370462,62
1689042696.28705,55
1689042696.3370457,52
1689042696.3870459,52
1689042696.4370456,50
1689042696.48705,44
1689042696.5370462,37
1689042696.5870495,31
1689042696.6370494,27
1689042696.6870456,26
1689042696.7370448,25
1689042696.7870448,25
1689042696.8370512,24
1689042696.8700452,23
1689042696.9200494,22
1689042696.9698207,29
1689042697.0198195,57
1689042697.0698195,85
1689042697.1198242,84
1689042697.1698246,70
1689042697.219826,59
1689042697.26982,53
1689042697.319824,53
1689042697.369825,54
1689042697.4198236,49
1689042697.4698203,40
1689042697.5198185,34
1689042697.5698195,29
1689042697.619819,27
1689042697.6698189,27
1689042697.7198234,27
1689042697.7698233,26
1689042697.8198187,25
1689042697.853819,27
1689042697.9038186,40
1689042697.953938,72
1689042698.0033023,86
1689042698.054044,78
1689042698.1041622,65
1689042698.154162,57
1689042698.204162,55
1689042698.2541664,58
1689042698.3041623,55
1689042698.3541658,48
1689042698.4041615,40
1689042698.4541657,33
1689042698.5041616,29
1689042698.554162,27
1689042698.604148,26
1689042698.6541479,24
1689042698.7041435,21
1689042698.754143,21
1689042698.8041444,38
1689042698.840143,64
1689042698.8871481,69
1689042698.9371479,57
1689042698.9871426,40
1689042699.0371473,26
1689042699.087147,20
1689042699.1371477,22
1689042699.187144,23
1689042699.237143,16
1689042699.2871468,6
1689042699.337147,0
1689042699.3871427,0
1689042699.4371428,0
1689042699.4871469,0
1689042699.5371425,0
1689042699.5871422,0
1689042699.6371422,21
1689042699.6871417,36
1689042699.7371464,32
1689042699.787142,16
1689042699.837146,1
1689042699.8711462,0
1689042699.9211462,0
1689042699.971141,9
1689042700.021146,11
1689042700.0711415,6
1689042700.121146,0
1689042700.1711457,0
1689042700.2211456,0
1689042700.271145,0
1689042700.3211403,8
1689042700.370841,53
1689042700.4205775,77
1689042700.4705734,74
1689042700.5205739,60
1689042700.5705724,45
1689042700.620577,40
1689042700.670577,46
1689042700.7205772,49
1689042700.770573,44
1689042700.8205774,37
1689042700.8535726,29
1689042700.9035716,26
1689042700.9532528,24
1689042701.0040672,25
1689042701.0550663,40
1689042701.1040676,70
1689042701.154071,86
1689042701.204067,82
1689042701.254068,72
1689042701.3040664,62
1689042701.3540664,55
1689042701.4040709,54
1689042701.4540703,54
1689042701.5040665,48
1689042701.554066,40
1689042701.6040664,34
1689042701.654071,29
1689042701.7040653,28
1689042701.7540658,30
1689042701.8040745,48
1689042701.8400707,73
1689042701.8870702,80
1689042701.9370658,76
1689042701.9870656,69
1689042702.0370648,61
1689042702.0870655,53
1689042702.137065,50
1689042702.1870646,50
1689042702.2370653,47
1689042702.2870696,41
1689042702.337065,38
1689042702.3868718,35
1689042702.4371397,34
1689042702.486364,33
1689042702.5363631,36
1689042702.5863628,53
1689042702.6363635,73
1689042702.6863625,76
1689042702.7365613,71
1689042702.7870705,65
1689042702.8370748,57
1689042702.8710709,50
1689042702.921071,48
1689042702.9709668,45
1689042703.020968,40
1689042703.0709715,34
1689042703.120968,29
1689042703.170967,26
1689042703.2209668,25
1689042703.2709668,25
1689042703.3209672,25
1689042703.370971,34
1689042703.4209666,56
1689042703.4709713,70
1689042703.520966,68
1689042703.5709705,65
1689042703.620966,61
1689042703.670967,56
1689042703.7209663,53
1689042703.7709668,52
1689042703.820967,49
1689042703.8539655,44
1689042703.9099705,40
1689042703.9599652,37
1689042704.0099666,35
1689042704.0679698,33
1689042704.11797,31
1689042704.1679678,31
1689042704.2179663,45
1689042704.267965,67
1689042704.3179655,73
1689042704.3679664,69
1689042704.4179652,65
1689042704.4679644,60
1689042704.517965,55
1689042704.5679674,52
1689042704.6179647,48
1689042704.667965,42
1689042704.7179582,36
1689042704.7674174,30
1689042704.8174171,26
1689042704.8514178,24
1689042704.9013126,23
1689042704.9520433,21
1689042705.002044,26
1689042705.0520437,45
1689042705.1020427,64
1689042705.1520436,64
1689042705.2020435,58
1689042705.2520437,52
1689042705.302043,44
1689042705.3520422,39
1689042705.4020426,36
1689042705.4520469,31
1689042705.5020473,25
1689042705.5520473,20
1689042705.6020436,16
1689042705.6516302,15
1689042705.7016296,14
1689042705.7516303,15
1689042705.8026302,29
1689042705.8396306,54
1689042705.8846304,61
1689042705.9346304,58
1689042705.9846299,52
1689042706.0346339,44
1689042706.0846295,40
1689042706.134629,39
1689042706.184634,37
1689042706.234634,32
1689042706.28463,25
1689042706.3346336,20
1689042706.3846295,17
1689042706.4346337,16
1689042706.484629,17
1689042706.534629,16
1689042706.5846286,26
1689042706.6345541,56
1689042706.6847005,69
1689042706.734696,68
1689042706.7846959,62
1689042706.8347,56
1689042706.867701,49
1689042706.9177,47
1689042706.9677007,46
1689042707.017697,41
1689042707.0677001,35
1689042707.117541,29
1689042707.167541,25
1689042707.2174027,24
1689042707.2674031,24
1689042707.3174026,24
1689042707.367402,24
1689042707.4177783,23
1689042707.4680412,25
1689042707.5180414,43
1689042707.5680413,71
1689042707.618037,81
1689042707.6680372,76
1689042707.718036,70
1689042707.7680361,64
1689042707.8180366,60
1689042707.852041,57
1689042707.9020357,53
1689042707.9520197,47
1689042708.001678,40
1689042708.0516737,34
1689042708.1016734,31
1689042708.1516743,29
1689042708.2016733,27
1689042708.2516775,25
1689042708.3016732,24
1689042708.3516736,22
1689042708.4026775,22
1689042708.4526951,35
1689042708.5016906,63
1689042708.5516915,78
1689042708.6016915,74
1689042708.651695,68
1689042708.7016914,63
1689042708.7517612,58
1689042708.8016949,57
1689042708.84069,54
1689042708.8876946,51
1689042708.93769,44
1689042708.9876902,39
1689042709.0376947,35
1689042709.0876923,32
1689042709.1376898,31
1689042709.1877556,30
1689042709.2376907,28
1689042709.28769,27
1689042709.3376904,25
1689042709.387749,32
1689042709.4376934,54
1689042709.4876945,73
1689042709.5376935,71
1689042709.5886948,60
1689042709.63769,52
1689042709.6876895,47
1689042709.7376885,44
1689042709.7877476,42
1689042709.837689,38
1689042709.870235,31
1689042709.9202302,26
1689042709.9702325,18
1689042710.0202303,13
1689042710.0702305,8
1689042710.1202354,5
1689042710.1702297,2
1689042710.2202342,0
1689042710.2702305,0
1689042710.320234,0
1689042710.371231,15
1689042710.4202967,36
1689042710.471234,38
1689042710.5202334,31
1689042710.57023,26
1689042710.6202304,21
1689042710.6702342,20
1689042710.7202332,23
1689042710.7702296,20
1689042710.8203127,12
1689042710.8542898,6
1689042710.9042296,3
1689042710.9542332,0
1689042711.004233,0
1689042711.0552325,3
1689042711.105231,6
1689042711.154229,11
1689042711.2042286,29
1689042711.2542324,55
1689042711.3042297,66
1689042711.3542292,60
1689042711.4042325,50
1689042711.4542327,42
1689042711.5052276,42
1689042711.554232,45
1689042711.6052277,42
1689042711.6542318,36
1689042711.7042277,28
1689042711.754227,21
1689042711.8042943,15
1689042711.8412275,11
1689042711.8872313,9
1689042711.937235,6
1689042711.9872317,12
1689042712.038228,33
1689042712.0872273,51
1689042712.1372278,52
1689042712.1882296,44
1689042712.237293,35
1689042712.2872956,29
1689042712.3382268,31
1689042712.3872256,36
1689042712.4378734,35
1689042712.487781,31
1689042712.5377834,26
1689042712.587782,22
1689042712.6377854,21
1689042712.6877818,20
1689042712.7377818,22
1689042712.7877817,38
1689042712.837785,63
1689042712.8717809,75
1689042712.9217854,73
1689042712.9717808,65
1689042713.021782,56
1689042713.0717819,50
1689042713.121834,50
1689042713.1717799,51
1689042713.2217844,48
1689042713.2717812,40
1689042713.3217843,32
1689042713.3717804,25
1689042713.421786,22
1689042713.4717903,22
1689042713.521781,26
1689042713.5717804,43
1689042713.6217806,64
1689042713.6717799,69
1689042713.7217836,63
1689042713.7717857,56
1689042713.8217833,47
1689042713.8547785,42
1689042713.9047792,41
1689042713.9547784,41
1689042714.0047798,38
1689042714.054781,31
1689042714.1047792,24
1689042714.1545246,19
1689042714.2045238,17
1689042714.254528,17
1689042714.3045237,23
1689042714.354528,44
1689042714.404523,66
1689042714.454528,71
1689042714.504526,66
1689042714.5545225,60
1689042714.6045275,52
1689042714.6545236,50
1689042714.7045276,53
1689042714.7545233,53
1689042714.804523,50
1689042714.8405285,46
1689042714.887529,45
1689042714.937527,43
1689042714.987587,41
1689042715.037525,40
1689042715.0875266,38
1689042715.1375232,40
1689042715.1875246,60
1689042715.2375226,85
1689042715.2875268,91
1689042715.3375227,85
1689042715.387522,79
1689042715.4375226,71
1689042715.4875882,64
1689042715.5375228,59
1689042715.587522,54
1689042715.6375265,46
1689042715.687521,37
1689042715.7390976,29
1689042715.7890942,23
1689042715.8390975,20
1689042715.8720934,19
1689042715.922094,19
1689042715.972093,20
1689042716.0220976,22
1689042716.072094,34
1689042716.1220927,59
1689042716.172097,77
1689042716.2220972,75
1689042716.2720933,68
1689042716.3220932,61
1689042716.3720946,57
1689042716.422097,57
1689042716.4720926,55
1689042716.522102,49
1689042716.5720918,43
1689042716.6216006,39
1689042716.6715965,36
1689042716.721597,35
1689042716.7715964,35
1689042716.8215961,33
1689042716.8545966,30
1689042716.9106164,30
1689042716.9605951,45
1689042717.0105956,77
1689042717.0686004,85
1689042717.1185968,78
1689042717.168596,72
1689042717.2185974,65
1689042717.2685974,58
1689042717.3185952,53
1689042717.3685944,48
1689042717.4185956,41
1689042717.4685957,34
1689042717.5185943,28
1689042717.5685942,25
1689042717.618597,23
1689042717.6685946,22
1689042717.7186003,21
1689042717.7685943,20
1689042717.8186004,19
1689042717.8535984,27
1689042717.9035947,44
1689042717.9525933,73
1689042718.0026565,79
1689042718.0525982,71
1689042718.102598,64
1689042718.152594,58
1689042718.2025936,53
1689042718.2525952,51
1689042718.3025942,47
1689042718.3525941,42
1689042718.4025977,35
1689042718.4525948,29
1689042718.502597,24
1689042718.5525951,23
1689042718.602594,22
1689042718.652593,21
1689042718.7025971,20
1689042718.7525978,18
1689042718.8035932,21
1689042718.8415966,42
1689042718.8856163,68
1689042718.9355946,80
1689042718.985593,74
1689042719.0355968,65
1689042719.0855963,60
1689042719.1355932,53
1689042719.1855915,51
1689042719.2356517,48
1689042719.2855914,42
1689042719.3356547,35
1689042719.3855917,28
1689042719.435596,24
1689042719.4855955,22
1689042719.535591,21
1689042719.585592,19
1689042719.6355925,18
1689042719.6855917,16
1689042719.7356453,14
1689042719.785591,19
1689042719.8355954,49
1689042719.86859,74
1689042719.918654,76
1689042719.96859,68
1689042720.0185902,57
1689042720.0685916,48
1689042720.1185951,40
1689042720.1685946,37
1689042720.218596,30
1689042720.2685952,20
1689042720.318591,9
1689042720.3685908,2
1689042720.4185944,0
1689042720.4685903,0
1689042720.518594,0
1689042720.5685902,0
1689042720.6185904,0
1689042720.6685953,0
1689042720.7186077,3
1689042720.7686038,31
1689042720.8186035,56
1689042720.8526034,59
1689042720.9026043,53
1689042720.952608,42
1689042721.0026078,33
1689042721.0536022,34
1689042721.1026068,40
1689042721.1526039,41
1689042721.202607,37
1689042721.2521846,29
1689042721.3031838,22
1689042721.3521836,18
1689042721.4021847,17
1689042721.4522483,18
1689042721.5031884,22
1689042721.5541844,40
1689042721.6031842,67
1689042721.652187,74
1689042721.7031837,67
1689042721.753188,56
1689042721.8021836,46
1689042721.8421888,43
1689042721.886184,45
1689042721.9351895,46
1689042721.986183,42
1689042722.0352604,35
1689042722.0861845,27
1689042722.1361825,23
1689042722.185183,22
1689042722.2361834,22
1689042722.2861848,23
1689042722.336182,37
1689042722.3861823,64
1689042722.436183,80
1689042722.4852755,77
1689042722.535183,67
1689042722.586184,58
1689042722.636183,50
1689042722.6861832,48
1689042722.7361825,49
1689042722.7851825,44
1689042722.8351824,37
1689042722.8701818,29
1689042722.9201856,24
1689042722.969184,20
1689042723.0191836,20
1689042723.069182,20
1689042723.119773,33
1689042723.1693804,60
1689042723.2199554,75
1689042723.2699552,71
1689042723.3199515,61
1689042723.3699505,53
1689042723.4199517,46
1689042723.4700122,44
1689042723.5199542,43
1689042723.5699515,39
1689042723.6199505,31
1689042723.66995,23
1689042723.7199495,17
1689042723.7699504,14
1689042723.8199506,14
1689042723.8529541,16
1689042723.9089503,28
1689042723.95895,46
1689042724.0089505,69
1689042724.0699542,70
1689042724.1199539,60
1689042724.16995,53
1689042724.219552,48
1689042724.2695558,47
1689042724.319645,47
1689042724.3695512,42
1689042724.4195554,35
1689042724.469551,28
1689042724.5195558,22
1689042724.5695505,20
1689042724.6195512,20
1689042724.6695564,24
1689042724.719555,45
1689042724.769551,69
1689042724.8195548,73
1689042724.8525515,65
1689042724.9085557,60
1689042724.9586089,54
1689042725.0085547,50
1689042725.069554,49
1689042725.1195498,46
1689042725.1695507,40
1689042725.2195518,33
1689042725.2695494,27
1689042725.3196151,23
1689042725.3695502,22
1689042725.4196084,22
1689042725.4695542,29
1689042725.5195491,54
1689042725.569555,76
1689042725.6195533,77
1689042725.66955,71
1689042725.7199655,65
1689042725.7695146,59
1689042725.8197284,56
1689042725.8526464,54
1689042725.902471,51
1689042725.9522822,45
1689042726.0022879,39
1689042726.0522828,32
1689042726.1022842,28
1689042726.1528032,25
1689042726.2028096,24
1689042726.2528055,24
1689042726.303264,40
1689042726.3536384,68
1689042726.4026384,81
1689042726.4526424,76
1689042726.502638,68
1689042726.5530527,61
1689042726.6025124,55
1689042726.6525311,52
1689042726.7025266,49
1689042726.752527,43
1689042726.8025267,37
1689042726.8415263,30
1689042726.8865888,26
1689042726.9371545,23
1689042726.98644,22
1689042727.0365207,21
1689042727.086524,21
1689042727.136521,34
1689042727.1865206,63
1689042727.2365196,79
1689042727.2865193,76
1689042727.3365207,66
1689042727.3865252,58
1689042727.4365234,51
1689042727.4873405,49
1689042727.5363367,46
1689042727.5863404,40
1689042727.6363375,33
1689042727.6863403,26
1689042727.7363484,20
1689042727.7863483,17
1689042727.8363488,16
1689042727.8693504,16
1689042727.920347,16
1689042727.9699116,16
1689042728.0199134,34
1689042728.069911,64
1689042728.119912,77
1689042728.1699116,69
1689042728.2199152,58
1689042728.2699149,50
1689042728.3199122,46
1689042728.3699117,46
1689042728.4199128,44
1689042728.469915,38
1689042728.5199103,29
1689042728.5699744,22
1689042728.6199143,18
1689042728.6699104,16
1689042728.719914,15
1689042728.7699118,15
1689042728.819914,14
1689042728.8529124,19
1689042728.904909,34
1689042728.9529119,64
1689042729.0029137,75
1689042729.0529134,65
1689042729.1029136,53
1689042729.1529133,44
1689042729.2029092,42
1689042729.2529142,44
1689042729.3029084,42
1689042729.3529093,36
1689042729.402908,28
1689042729.4527411,22
1689042729.5027952,18
1689042729.5527363,17
1689042729.6027405,17
1689042729.6537378,17
1689042729.7037363,17
1689042729.7547362,26
1689042729.8047361,53
1689042729.8417354,78
1689042729.8867366,78
1689042729.9367352,68
1689042729.9867415,54
1689042730.036739,47
1689042730.086735,48
1689042730.136739,50
1689042730.1867354,47
1689042730.2367349,40
1689042730.286735,32
1689042730.3367336,27
1689042730.3867352,24
1689042730.4367387,24
1689042730.486735,24
1689042730.5367389,25
1689042730.58674,27
1689042730.6367364,47
1689042730.6867344,76
1689042730.7367342,82
1689042730.786734,69
1689042730.8367379,54
1689042730.8747346,46
1689042730.9227393,47
1689042730.9728205,51
1689042731.022738,49
1689042731.0727332,42
1689042731.1227338,35
1689042731.1727943,28
1689042731.222737,24
1689042731.2727332,22
1689042731.322764,21
1689042731.3727589,20
1689042731.4227571,24
1689042731.472757,46
1689042731.5227618,71
1689042731.572758,71
1689042731.6227577,56
1689042731.6727567,41
1689042731.722757,33
1689042731.7728283,34
1689042731.8227565,38
1689042731.8557978,34
1689042731.9056246,29
1689042731.9556265,19
1689042732.0056298,11
1689042732.0556252,4
1689042732.1056256,0
1689042732.1556492,0
1689042732.2056453,0
1689042732.2556489,11
1689042732.3056488,38
1689042732.3556447,52
1689042732.4056454,47
1689042732.4556494,35
1689042732.5066469,21
1689042732.5566487,18
1689042732.6066456,24
1689042732.6566482,28
1689042732.7066445,24
1689042732.7566485,17
1689042732.8067045,11
1689042732.8426485,9
1689042732.8926485,9
1689042732.9426446,11
1689042732.9926429,25
1689042733.053643,53
1689042733.103644,74
1689042733.1536427,69
1689042733.2036443,55
1689042733.2536438,44
1689042733.3036435,43
1689042733.353644,48
1689042733.4036489,49
1689042733.4536428,42
1689042733.5037143,35
1689042733.5536473,28
1689042733.6037152,24
1689042733.6546445,23
1689042733.7056415,30
1689042733.754648,53
1689042733.8046432,77
1689042733.8426433,79
1689042733.8867006,74
1689042733.936646,64
1689042733.9866476,55
1689042734.036646,52
1689042734.0866458,53
1689042734.1366432,50
1689042734.1866417,42
1689042734.2366416,34
1689042734.2866414,27
1689042734.3366454,25
1689042734.3866408,25
1689042734.4366417,37
1689042734.4866412,62
1689042734.5366452,80
1689042734.5866408,76
1689042734.636645,67
1689042734.6867135,56
1689042734.7366445,48
1689042734.78664,45
1689042734.836645,44
1689042734.8706412,40
1689042734.9206398,36
1689042734.970646,30
1689042735.020641,25
1689042735.0706406,24
1689042735.1206396,23
1689042735.1706405,24
1689042735.2206404,40
1689042735.2706404,68
1689042735.3206413,69
1689042735.3706455,61
1689042735.42064,54
1689042735.4706404,46
1689042735.5206397,42
1689042735.5706398,42
1689042735.6206436,39
1689042735.6706438,34
1689042735.720639,28
1689042735.7706418,24
1689042735.8206432,22
1689042735.8536396,22
1689042735.9046402,23
1689042735.9546392,35
1689042736.0036433,59
1689042736.054639,74
1689042736.103639,71
1689042736.1536388,65
1689042736.2036443,58
1689042736.2536423,51
1689042736.3036373,49
1689042736.3536382,47
1689042736.4036388,41
1689042736.4536383,35
1689042736.5040333,30
1689042736.554037,26
1689042736.604037,25
1689042736.6540325,24
1689042736.7040377,26
1689042736.755033,41
1689042736.8041027,64
1689042736.8430333,71
1689042736.887033,67
1689042736.9370322,61
1689042736.9870362,54
1689042737.0370362,49
1689042737.0870323,47
1689042737.1370313,46
1689042737.1870317,41
1689042737.2370358,36
1689042737.2870965,29
1689042737.3370316,25
1689042737.3870318,24
1689042737.4370317,24
1689042737.4870317,23
1689042737.5370317,35
1689042737.587032,61
1689042737.6370313,71
1689042737.6870348,67
1689042737.7370315,61
1689042737.7870314,54
1689042737.8370364,48
1689042737.876031,47
1689042737.92403,46
1689042737.974034,42
1689042738.0240865,37
1689042738.0740306,29
1689042738.1240344,25
1689042738.174034,24
1689042738.2240303,23
1689042738.274036,21
1689042738.3240297,21
1689042738.37403,37
1689042738.424029,63
1689042738.47403,73
1689042738.5241158,67
1689042738.5740306,61
1689042738.6240292,54
1689042738.67403,48
1689042738.7240298,46
1689042738.7740312,43
1689042738.8240297,37
1689042738.857033,31
1689042738.9070292,27
1689042738.9570284,23
1689042739.007029,22
1689042739.0570295,22
1689042739.1070285,21
1689042739.1570327,19
1689042739.2070282,19
1689042739.2570283,33
1689042739.307029,61
1689042739.3570323,76
1689042739.407032,72
1689042739.457035,65
1689042739.5070295,59
1689042739.5570285,52
1689042739.6070273,49
1689042739.6570268,46
1689042739.7067077,40
1689042739.7567685,34
1689042739.8065286,28
1689042739.8423033,24
1689042739.8897965,24
1689042739.9397972,23
1689042739.9897954,22
1689042740.0400772,21
1689042740.0900772,19
1689042740.1398802,18
1689042740.1891909,23
1689042740.239178,46
1689042740.2893806,74
1689042740.3394907,80
1689042740.3894207,71
1689042740.4401147,64
1689042740.4898155,57
1689042740.5399652,53
1689042740.589325,52
1689042740.6393719,47
1689042740.689774,40
1689042740.73969,32
1689042740.7896855,26
1689042740.839685,22
1689042740.873685,21
1689042740.9236894,21
1689042740.9736905,20
1689042741.0236845,19
1689042741.0786853,17
1689042741.1286871,15
1689042741.1806893,21
1689042741.2316904,45
1689042741.2806885,71
1689042741.3286848,81
1689042741.3786852,74
1689042741.4287286,63
1689042741.4787045,53
1689042741.5436847,51
1689042741.5926852,49
1689042741.6426897,43
1689042741.6926851,36
1689042741.7426896,29
1689042741.7926884,25
1689042741.8426833,23
1689042741.8926833,21
1689042741.942684,20
1689042741.9926844,19
1689042742.0536838,17
1689042742.1036832,16
1689042742.153684,16
1689042742.2056863,33
1689042742.2556837,65
1689042742.304731,80
1689042742.354684,70
1689042742.4046853,57
1689042742.4547446,49
1689042742.5046823,47
1689042742.5546873,49
1689042742.604682,48
1689042742.6546867,42
1689042742.7046819,34
1689042742.7546864,28
1689042742.804683,24
1689042742.842688,22
1689042742.8876865,22
1689042742.9376838,21
1689042742.9876826,20
1689042743.0376832,19
1689042743.0876858,18
1689042743.137682,19
1689042743.1876857,41
1689042743.2376814,72
1689042743.2876818,80
1689042743.3376825,70
1689042743.3876853,55
1689042743.4376814,45
1689042743.4876802,43
1689042743.5376813,46
1689042743.5876815,46
1689042743.6376817,40
1689042743.687681,32
1689042743.7376814,24
1689042743.7876852,20
1689042743.8377492,18
1689042743.870683,17
1689042743.9206848,17
1689042743.9707682,16
1689042744.0206847,15
1689042744.0706828,15
1689042744.1206794,30
1689042744.1706805,56
1689042744.2206805,66
1689042744.2706826,56
1689042744.3206844,43
1689042744.3706791,35
1689042744.420685,34
1689042744.4706798,39
1689042744.5206792,40
1689042744.57068,34
1689042744.6206837,27
1689042744.6706786,20
1689042744.7206833,16
1689042744.7706797,13
1689042744.8206794,13
1689042744.8546789,14
1689042744.9046805,16
1689042744.956679,31
1689042745.0056791,55
1689042745.055679,64
1689042745.1046844,54
1689042745.1546826,41
1689042745.2046776,32
1689042745.2556782,31
1689042745.3046796,35
1689042745.3546786,35
1689042745.404682,29
1689042745.4547288,23
1689042745.5046778,18
1689042745.5546796,17
1689042745.6046789,18
1689042745.6556783,23
1689042745.7056818,38
1689042745.7546768,60
1689042745.8046765,69
1689042745.8436778,62
1689042745.887678,54
1689042745.9376779,45
1689042745.9876778,44
1689042746.0376818,49
1689042746.0872576,49
1689042746.1372561,45
1689042746.1872613,39
1689042746.2372613,33
1689042746.2872586,30
1689042746.3373394,30
1689042746.3872573,31
1689042746.4372573,39
1689042746.4872563,65
1689042746.5372603,89
1689042746.5872607,88
1689042746.6372619,76
1689042746.68726,66
1689042746.7372625,61
1689042746.7872558,61
1689042746.83726,59
1689042746.8712611,53
1689042746.9212558,47
1689042746.9712603,39
1689042747.0212595,32
1689042747.071261,29
1689042747.1212556,26
1689042747.1712594,25
1689042747.2212548,39
1689042747.2713196,60
1689042747.3212545,63
1689042747.3712547,54
1689042747.4212606,46
1689042747.4712555,41
1689042747.5212555,40
1689042747.5712585,40
1689042747.6212547,36
1689042747.671256,32
1689042747.7212546,27
1689042747.771255,22
1689042747.8212585,17
1689042747.854254,15
1689042747.9042542,14
1689042747.954254,15
1689042748.0042548,27
1689042748.054254,41
1689042748.1042528,42
1689042748.1542528,38
1689042748.2042572,35
1689042748.2542524,33
1689042748.3042536,33
1689042748.3542538,33
1689042748.4042547,30
1689042748.4542532,26
1689042748.504257,23
1689042748.5542533,20
1689042748.6042533,19
1689042748.6543145,18
1689042748.7042568,16
1689042748.7542536,14
1689042748.8042526,19
1689042748.8432565,32
1689042748.887254,36
1689042748.9372528,33
1689042748.9872565,28
1689042749.0372562,26
1689042749.0872517,26
1689042749.1372523,27
1689042749.187252,27
1689042749.2372556,24
1689042749.287256,21
1689042749.3373132,19
1689042749.3872519,18
1689042749.4372532,18
1689042749.4872606,18
1689042749.5372524,17
1689042749.5872533,17
1689042749.6373224,24
1689042749.687251,38
1689042749.7372513,38
1689042749.7872512,35
1689042749.837312,30
1689042749.8712547,27
1689042749.9212513,27
1689042749.9712517,28
1689042750.0212526,28
1689042750.0712507,25
1689042750.1212506,22
1689042750.171251,20
1689042750.2212548,19
1689042750.2712548,19
1689042750.321251,19
1689042750.3712506,21
1689042750.4212544,30
1689042750.4712539,38
1689042750.5212538,35
1689042750.5712535,29
1689042750.6212487,26
1689042750.67125,26
1689042750.7212496,28
1689042750.7712538,29
1689042750.8212519,27
1689042750.8542495,24
1689042750.9042497,23
1689042750.954253,22
1689042751.0042527,23
1689042751.0542493,23
1689042751.1052525,23
1689042751.1552486,30
1689042751.2042527,40
1689042751.254248,40
1689042751.3042526,31
1689042751.3543146,27
1689042751.4042494,26
1689042751.4542508,27
1689042751.5042484,28
1689042751.5542479,23
1689042751.604247,17
1689042751.654468,14
1689042751.7045133,13
1689042751.7545173,14
1689042751.804517,15
1689042751.843513,15
1689042751.8885128,14
1689042751.9385128,18
1689042751.9885125,51
1689042752.0385125,53
1689042752.0885127,41
1689042752.1385286,37
1689042752.1884177,35
1689042752.2384143,32
1689042752.288415,31
1689042752.3384802,29
1689042752.3884134,24
1689042752.4384177,19
1689042752.4884138,15
1689042752.5384135,14
1689042752.5884137,14
1689042752.638417,13
1689042752.6884632,12
1689042752.738417,10
1689042752.7884169,10
1689042752.838418,27
1689042752.877415,54
1689042752.927413,54
1689042752.9774153,42
1689042753.0274124,36
1689042753.0774162,34
1689042753.1274126,32
1689042753.1774125,32
1689042753.2274125,31
1689042753.2774122,27
1689042753.3274124,21
1689042753.3774157,16
1689042753.4274137,14
1689042753.4774108,15
1689042753.527412,15
1689042753.5774117,14
1689042753.6274133,12
1689042753.6774118,9
1689042753.727411,8
1689042753.7774105,25
1689042753.8274117,52
1689042753.8604114,57
1689042753.9104154,48
1689042753.9604113,39
1689042754.0104163,37
1689042754.0714817,36
1689042754.121412,37
1689042754.171413,35
1689042754.2214108,31
1689042754.271414,28
1689042754.321414,26
1689042754.37141,26
1689042754.4214144,26
1689042754.47141,26
1689042754.5214105,25
1689042754.5714152,24
1689042754.621414,24
1689042754.6714094,23
1689042754.7214088,25
1689042754.771209,49
1689042754.8221095,75
1689042754.8551757,72
1689042754.9061084,63
1689042754.95611,55
1689042755.0061045,53
1689042755.0561068,53
1689042755.1061053,54
1689042755.1561053,49
1689042755.2061062,40
1689042755.2561042,34
1689042755.306105,29
1689042755.3561056,27
1689042755.4061053,27
1689042755.4561036,26
1689042755.5051055,24
1689042755.5551667,21
1689042755.6061084,19
1689042755.656106,16
1689042755.7071075,28
1689042755.7571082,55
1689042755.806105,64
1689042755.844104,50
1689042755.889104,41
1689042755.9391036,33
1689042755.9891076,33
1689042756.039103,40
1689042756.0891042,42
1689042756.1391084,38
1689042756.1891026,33
1689042756.2391036,30
1689042756.2891045,30
1689042756.339104,31
1689042756.3891068,33
1689042756.4391036,33
1689042756.4891071,41
1689042756.5389264,69
1689042756.5889266,77
1689042756.638987,65
1689042756.688923,50
1689042756.7389226,40
1689042756.7889225,39
1689042756.8389242,42
1689042756.8769217,43
1689042756.9249809,40
1689042756.9749224,34
1689042757.0249221,29
1689042757.0749214,27
1689042757.1249266,27
1689042757.1749232,27
1689042757.2249212,26
1689042757.274927,25
1689042757.3249266,31
1689042757.3749213,60
1689042757.4249222,89
1689042757.474921,86
1689042757.5249925,71
1689042757.5749207,63
1689042757.6249247,62
1689042757.6749215,64
1689042757.7249212,65
1689042757.7749865,60
1689042757.8249247,51
1689042757.8589194,40
1689042757.9089203,36
1689042757.958924,32
1689042758.0089204,29
1689042758.0589197,28
1689042758.1089206,29
1689042758.1589196,29
1689042758.2089202,35
1689042758.2589211,66
1689042758.308919,96
1689042758.3589196,93
1689042758.4089198,79
1689042758.458924,70
1689042758.5089195,67
1689042758.571924,69
1689042758.6219182,69
1689042758.6719193,62
1689042758.7219229,53
1689042758.7719185,44
1689042758.8219194,37
1689042758.8559186,32
1689042758.9060347,29
1689042758.956039,25
1689042759.0060334,23
1689042759.0600383,23
1689042759.109034,41
1689042759.159034,79
1689042759.209034,99
1689042759.2590387,92
1689042759.3090343,81
1689042759.3590376,75
1689042759.409034,73
1689042759.459034,76
1689042759.5090332,72
1689042759.559037,60
1689042759.6090329,48
1689042759.6590335,40
1689042759.7091022,31
1689042759.759037,25
1689042759.8090334,20
1689042759.8450322,16
1689042759.8920374,14
1689042759.9420328,15
1689042759.9920354,43
1689042760.0420334,85
1689042760.093032,96
1689042760.1420329,83
1689042760.1920342,69
1689042760.2420368,60
1689042760.292036,60
1689042760.342033,61
1689042760.3920321,54
1689042760.4420357,41
1689042760.4920356,29
1689042760.542031,20
1689042760.592032,14
1689042760.642036,11
1689042760.6920326,9
1689042760.7420306,7
1689042760.7920315,21
1689042760.842031,56
1689042760.8750312,76
1689042760.9250362,76
1689042760.975035,65
1689042761.0251005,51
1689042761.0750308,54
1689042761.1250305,67
1689042761.1750345,72
1689042761.2250302,64
1689042761.2750354,53
1689042761.3250306,42
1689042761.3750296,36
1689042761.4250293,33
1689042761.4750297,30
1689042761.52503,36
1689042761.5750341,69
1689042761.625029,106
1689042761.67503,108
1689042761.7250335,66
1689042761.7750297,60
1689042761.8260305,56
1689042761.8590286,55
1689042761.9090295,55
1689042761.9590287,52
1689042762.0090337,46
1689042762.059029,40
1689042762.1090317,35
1689042762.1581323,32
1689042762.2091308,30
1689042762.259129,29
1689042762.3091283,29
1689042762.3591275,42
1689042762.4081278,65
1689042762.4581268,73
1689042762.5081267,67
1689042762.5581274,60
1689042762.6091263,56
1689042762.658127,54
1689042762.7091262,53
1689042762.7591271,49
1689042762.8091269,43
1689042762.8441987,37
1689042762.8911324,34
1689042762.9421258,31
1689042762.9911273,29
1689042763.042128,28
1689042763.0921261,28
1689042763.1421256,27
1689042763.1911254,34
1689042763.2421253,55
1689042763.2921252,73
1689042763.342145,71
1689042763.391126,63
1689042763.4411318,56
1689042763.4921262,53
1689042763.5421298,53
1689042763.5911295,51
1689042763.6411276,45
1689042763.6921294,40
1689042763.742126,34
1689042763.7921274,31
1689042763.8421242,29
1689042763.876129,28
1689042763.9251242,28
1689042763.9751241,27
1689042764.025124,26
1689042764.0751295,27
1689042764.1261253,42
1689042764.175128,66
1689042764.2251241,73
1689042764.2751536,64
1689042764.325158,55
1689042764.3751578,50
1689042764.4251537,50
1689042764.4751532,51
1689042764.5251534,47
1689042764.589152,39
1689042764.6391568,34
1689042764.6901526,29
1689042764.7391577,27
1689042764.7891555,26
1689042764.8391564,26
1689042764.8721516,24
1689042764.9231527,23
1689042764.9721515,22
1689042765.0231524,25
1689042765.0751584,45
1689042765.125152,68
1689042765.175156,64
1689042765.2251523,52
1689042765.2751575,42
1689042765.3251507,39
1689042765.3751702,40
1689042765.425552,40
1689042765.4755526,35
1689042765.5255513,28
1689042765.5755563,21
1689042765.625557,17
1689042765.675552,14
1689042765.7255557,13
1689042765.7755504,13
1689042765.8255525,12
1689042765.8585527,14
1689042765.9085555,24
1689042765.958551,45
1689042766.008555,56
1689042766.0585508,49
1689042766.108555,40
1689042766.1585555,33
1689042766.2085547,35
1689042766.2585506,40
1689042766.3085544,40
1689042766.3585553,36
1689042766.4085548,30
1689042766.4585543,26
1689042766.5085542,23
1689042766.5585542,22
1689042766.6085556,22
1689042766.658554,31
1689042766.708554,52
1689042766.7585495,68
1689042766.8085494,66
1689042766.8445535,56
1689042766.8945534,51
1689042766.9445498,49
1689042766.9945488,54
1689042767.0555491,58
1689042767.1055534,54
1689042767.1555488,48
1689042767.205549,42
1689042767.2555532,40
1689042767.3055544,38
1689042767.3565502,38
1689042767.408553,42
1689042767.458548,66
1689042767.505553,89
1689042767.5555484,90
1689042767.6055484,81
1689042767.655552,72
1689042767.7055497,66
1689042767.755552,61
1689042767.805549,58
1689042767.8445523,52
1689042767.8895476,47
1689042767.9391875,40
1689042767.989881,34
1689042768.0398755,31
1689042768.089876,30
1689042768.1398804,29
1689042768.1898756,34
1689042768.23988,56
1689042768.2898757,82
1689042768.339876,82
1689042768.3898797,73
1689042768.4398797,66
1689042768.4898796,60
1689042768.5398748,56
1689042768.5898798,54
1689042768.6398795,48
1689042768.689875,41
1689042768.7398753,35
1689042768.789879,31
1689042768.8398747,28
1689042768.872875,28
1689042768.9228754,28
1689042768.9728787,27
1689042769.0228758,33
1689042769.0758743,56
1689042769.1258743,78
1689042769.1758742,73
1689042769.2258787,64
1689042769.2758746,57
1689042769.3258784,53
1689042769.3758786,52
1689042769.4258747,49
1689042769.4758737,43
1689042769.525878,37
1689042769.5758739,31
1689042769.625873,27
1689042769.6758733,25
1689042769.7258778,24
1689042769.7758725,22
1689042769.8258734,19
1689042769.8588772,16
1689042769.9148798,15
1689042769.9648774,22
1689042770.0148768,52
1689042770.0708725,70
1689042770.120877,70
1689042770.170877,57
1689042770.2208767,50
1689042770.2708724,47
1689042770.3208766,47
1689042770.3708723,45
1689042770.4208767,39
1689042770.470872,32
1689042770.5208762,26
1689042770.5848725,22
1689042770.634871,22
1689042770.6848712,21
1689042770.7348711,20
1689042770.7848759,18
1689042770.8348715,16
1689042770.8678713,16
1689042770.9178705,24
1689042770.9678712,49
1689042771.0178764,70
1689042771.0728712,67
1689042771.1228716,56
1689042771.1728709,48
1689042771.2228703,45
1689042771.2728727,47
1689042771.3228745,48
1689042771.3728745,42
1689042771.4228747,36
1689042771.4728703,30
1689042771.5228705,26
1689042771.5728695,25
1689042771.622874,24
1689042771.6728697,24
1689042771.7228763,23
1689042771.772869,35
1689042771.8228738,60
1689042771.856874,74
1689042771.9068692,70
1689042771.9568737,59
1689042772.00687,50
1689042772.0578737,44
1689042772.1068695,44
1689042772.1568732,43
1689042772.206869,38
1689042772.2568734,31
1689042772.306869,27
1689042772.3568735,27
1689042772.4068732,27
1689042772.456873,26
1689042772.5068727,27
1689042772.5568726,27
1689042772.6068685,34
1689042772.6568694,59
1689042772.7068684,82
1689042772.7568681,80
1689042772.8068686,69
1689042772.8458722,58
1689042772.8898735,54
1689042772.939867,51
1689042772.9898734,52
1689042773.0398679,48
1689042773.089873,41
1689042773.139867,35
1689042773.189867,29
1689042773.239868,25
1689042773.289868,23
1689042773.3398736,22
1689042773.3898714,20
1689042773.4398718,19
1689042773.4898713,29
1689042773.555871,61
1689042773.6038668,79
1689042773.6538668,72
1689042773.7038708,62
1689042773.753868,55
1689042773.803871,53
1689042773.8458664,54
1689042773.8878708,53
1689042773.9378662,46
1689042773.9878702,38
1689042774.0378704,31
1689042774.0898654,26
1689042774.1398704,23
1689042774.1898718,22
1689042774.2398653,21
1689042774.2898657,21
1689042774.3398657,26
1689042774.3898654,51
1689042774.4398665,71
1689042774.4898658,73
1689042774.5398695,62
1689042774.5898697,52
1689042774.6398706,45
1689042774.6898687,43
1689042774.7398646,42
1689042774.7898717,40
1689042774.839869,33
1689042774.8788693,26
1689042774.9268687,17
1689042774.9768648,12
1689042775.026869,10
1689042775.0768645,9
1689042775.1268647,7
1689042775.1768687,8
1689042775.2268684,29
1689042775.2768686,64
1689042775.3268683,80
1689042775.376864,73
1689042775.4268699,59
1689042775.476864,50
1689042775.5268638,49
1689042775.5768676,51
1689042775.6268697,51
1689042775.6768627,45
1689042775.7268672,37
1689042775.7768784,27
1689042775.826867,22
1689042775.8598623,20
1689042775.9098625,19
1689042775.9598622,20
1689042776.0098672,33
1689042776.0598679,60
1689042776.1098628,78
1689042776.1598668,72
1689042776.2098627,59
1689042776.259867,50
1689042776.3098617,46
1689042776.3598619,47
1689042776.4098663,47
1689042776.4598625,42
1689042776.5098672,35
1689042776.5598624,30
1689042776.6098614,26
1689042776.659866,24
1689042776.7098658,24
1689042776.7598617,25
1689042776.8098676,37
1689042776.8458655,63
1689042776.8928666,76
1689042776.9428625,76
1689042776.9928656,63
1689042777.0428655,50
1689042777.092861,44
1689042777.1428652,45
1689042777.1928618,46
1689042777.2428648,41
1689042777.292861,34
1689042777.3428607,29
1689042777.392865,26
1689042777.4428663,25
1689042777.4928598,26
1689042777.5428648,27
1689042777.592914,28
1689042777.6428642,41
1689042777.6928654,70
1689042777.7428646,82
1689042777.7928598,67
1689042777.8428643,54
1689042777.8768604,46
1689042777.926865,45
1689042777.9768634,43
1689042778.0268588,40
1689042778.0768642,35
1689042778.1268642,29
1689042778.1768634,24
1689042778.226859,20
1689042778.2768629,18
1689042778.3268635,19
1689042778.3768585,19
1689042778.4268582,27
1689042778.4768627,51
1689042778.526858,73
1689042778.576864,70
