timestamp,bvp
1689041008.7058263,32
1689041008.7388222,69
1689041008.788822,87
1689041008.8388276,87
1689041008.8888218,77
1689041008.9388216,66
1689041008.9888265,56
1689041009.038826,50
1689041009.0888205,48
1689041009.138827,43
1689041009.1888213,36
1689041009.2388213,29
1689041009.288821,23
1689041009.3388212,19
1689041009.3888223,18
1689041009.4388251,19
1689041009.48882,43
1689041009.538821,77
1689041009.5888205,85
1689041009.6388247,78
1689041009.6888251,71
1689041009.721825,64
1689041009.7718203,60
1689041009.821824,56
1689041009.8718202,53
1689041009.921824,46
1689041009.9718263,39
1689041010.0218203,31
1689041010.0718255,25
1689041010.1213524,21
1689041010.1714177,20
1689041010.2214167,20
1689041010.2714214,30
1689041010.3214219,56
1689041010.371421,76
1689041010.4214172,75
1689041010.4714215,68
1689041010.521417,62
1689041010.5714164,58
1689041010.621416,55
1689041010.6724212,52
1689041010.7074206,47
1689041010.7554204,43
1689041010.8054206,37
1689041010.8554156,31
1689041010.9054205,27
1689041010.9554155,25
1689041011.0054204,23
1689041011.0554154,21
1689041011.1054199,33
1689041011.1554163,57
1689041011.20542,67
1689041011.2554164,62
1689041011.3054156,54
1689041011.3554149,50
1689041011.4054215,47
1689041011.455421,47
1689041011.5054195,46
1689041011.5554156,43
1689041011.6054192,39
1689041011.655415,34
1689041011.705415,30
1689041011.7384152,28
1689041011.7884192,25
1689041011.838419,20
1689041011.8884192,16
1689041011.9384189,27
1689041011.9884148,54
1689041012.0384185,68
1689041012.0884182,64
1689041012.1384144,57
1689041012.1884181,51
1689041012.2384183,47
1689041012.2884154,46
1689041012.3384192,43
1689041012.3884141,38
1689041012.4384181,32
1689041012.4884186,26
1689041012.538419,20
1689041012.5884185,16
1689041012.6384177,13
1689041012.6884172,10
1689041012.7214174,10
1689041012.7724135,22
1689041012.8224173,52
1689041012.8724132,67
1689041012.9224172,60
1689041012.9724183,49
1689041013.022417,40
1689041013.0724132,36
1689041013.1224124,36
1689041013.1724164,35
1689041013.2224164,31
1689041013.2724123,24
1689041013.3224187,17
1689041013.3724177,11
1689041013.4224162,7
1689041013.4724123,5
1689041013.5224223,4
1689041013.572416,14
1689041013.6224172,48
1689041013.672412,76
1689041013.7084172,75
1689041013.7584167,67
1689041013.8084154,54
1689041013.8584116,43
1689041013.9194155,38
1689041013.9694114,34
1689041014.0194159,28
1689041014.069411,20
1689041014.1194148,13
1689041014.1694107,8
1689041014.21941,6
1689041014.269415,5
1689041014.3194146,6
1689041014.3734105,24
1689041014.4224145,62
1689041014.4724174,86
1689041014.5224144,81
1689041014.5724158,69
1689041014.622414,56
1689041014.6724143,48
1689041014.708409,45
1689041014.755414,43
1689041014.805409,40
1689041014.8564095,33
1689041014.905414,25
1689041014.9554136,20
1689041015.0054133,16
1689041015.0554094,15
1689041015.1054094,19
1689041015.1554134,49
1689041015.2054093,83
1689041015.2554133,86
1689041015.3054092,76
1689041015.3554127,65
1689041015.4054139,57
1689041015.4554086,53
1689041015.5054128,52
1689041015.5554078,48
1689041015.6054084,42
1689041015.6554146,35
1689041015.7054086,28
1689041015.7554126,21
1689041015.8054075,19
1689041015.855412,21
1689041015.9054081,45
1689041015.9554124,76
1689041016.0054078,82
1689041016.0554128,74
1689041016.1054077,66
1689041016.1552358,58
1689041016.2052412,54
1689041016.2552402,52
1689041016.305237,48
1689041016.355237,42
1689041016.405236,37
1689041016.4552402,31
1689041016.5052397,27
1689041016.555241,25
1689041016.605236,24
1689041016.6552396,23
1689041016.7052398,37
1689041016.7382398,61
1689041016.7882397,71
1689041016.8382359,68
1689041016.8882396,60
1689041016.9392352,53
1689041016.9892411,47
1689041017.0392394,44
1689041017.089234,42
1689041017.1396427,38
1689041017.1893277,32
1689041017.2393286,27
1689041017.289328,23
1689041017.3393238,22
1689041017.3893228,19
1689041017.4393227,16
1689041017.48919,13
1689041017.5392487,13
1689041017.5892482,39
1689041017.6392453,66
1689041017.6892447,67
1689041017.7222478,57
1689041017.7722485,50
1689041017.8222482,41
1689041017.8722477,40
1689041017.9222474,40
1689041017.9722433,38
1689041018.0222478,31
1689041018.0722475,23
1689041018.1222434,16
1689041018.1722436,10
1689041018.2222474,7
1689041018.272247,4
1689041018.322243,2
1689041018.372245,2
1689041018.422247,20
1689041018.4722462,59
1689041018.522242,80
1689041018.5722466,70
1689041018.6222465,54
1689041018.6722462,40
1689041018.7082548,31
1689041018.7552464,30
1689041018.8052418,28
1689041018.8552423,24
1689041018.9052427,16
1689041018.955242,9
1689041019.005246,4
1689041019.0552409,1
1689041019.1052456,0
1689041019.1552408,0
1689041019.2052417,0
1689041019.255246,8
1689041019.3052452,39
1689041019.3552458,62
1689041019.4052405,59
1689041019.4552453,44
1689041019.505241,32
1689041019.5552416,25
1689041019.605245,26
1689041019.6552408,28
1689041019.7052405,25
1689041019.7392406,21
1689041019.7892406,18
1689041019.8392408,14
1689041019.8892403,11
1689041019.9392405,10
1689041019.9892445,10
1689041020.0392447,18
1689041020.0892446,48
1689041020.1392407,80
1689041020.1892452,84
1689041020.2392447,74
1689041020.2892435,61
1689041020.3392484,52
1689041020.3892434,48
1689041020.4392436,47
1689041020.4892392,43
1689041020.5392432,39
1689041020.5892434,34
1689041020.6392403,30
1689041020.689243,26
1689041020.7222428,23
1689041020.7722387,22
1689041020.822243,34
1689041020.8722427,71
1689041020.922239,100
1689041020.9722426,97
1689041021.022245,82
1689041021.072238,66
1689041021.1222422,54
1689041021.1722424,50
1689041021.2222433,48
1689041021.272242,45
1689041021.3222377,40
1689041021.3722422,35
1689041021.4222417,30
1689041021.4722416,25
1689041021.5222383,21
1689041021.572239,25
1689041021.6222374,54
1689041021.6728613,87
1689041021.7080395,90
1689041021.7560837,83
1689041021.8060877,71
1689041021.8560905,61
1689041021.9060838,57
1689041021.9560838,54
1689041022.0060842,49
1689041022.0560837,40
1689041022.1060874,32
1689041022.1560826,25
1689041022.206087,20
1689041022.2560873,15
1689041022.306089,13
1689041022.3560872,12
1689041022.4060872,38
1689041022.4560826,81
1689041022.507083,82
1689041022.5560822,72
1689041022.6060832,62
1689041022.656083,55
1689041022.7060864,53
1689041022.7440817,50
1689041022.792082,46
1689041022.8420837,39
1689041022.8920817,32
1689041022.953082,26
1689041023.0030859,23
1689041023.053086,19
1689041023.1030855,16
1689041023.1530824,17
1689041023.203082,46
1689041023.2530808,75
1689041023.303081,76
1689041023.3530817,66
1689041023.4030855,55
1689041023.4530807,48
1689041023.5030851,46
1689041023.5530877,46
1689041023.6030812,41
1689041023.653081,33
1689041023.703087,26
1689041023.7360845,20
1689041023.7860806,17
1689041023.8360798,15
1689041023.886085,13
1689041023.9360802,13
1689041023.98708,30
1689041024.0360842,63
1689041024.0860846,79
1689041024.1360807,71
1689041024.18608,59
1689041024.2360795,49
1689041024.2860842,46
1689041024.3360837,46
1689041024.3860795,44
1689041024.4360838,39
1689041024.48608,32
1689041024.536088,25
1689041024.5860837,20
1689041024.6360786,16
1689041024.686083,12
1689041024.720083,11
1689041024.775083,24
1689041024.8250787,58
1689041024.8750784,78
1689041024.9360826,71
1689041024.9860828,57
1689041025.0360806,49
1689041025.0860822,48
1689041025.1360795,49
1689041025.187078,46
1689041025.236082,40
1689041025.2860782,32
1689041025.3360782,24
1689041025.3860781,18
1689041025.4360774,13
1689041025.4864385,10
1689041025.5363038,15
1689041025.5863,42
1689041025.6363,72
1689041025.686304,74
1689041025.7202997,61
1689041025.7702994,51
1689041025.8202996,41
1689041025.8702993,40
1689041025.920299,41
1689041025.9702988,40
1689041026.020299,35
1689041026.0702982,27
1689041026.1202989,19
1689041026.1702986,13
1689041026.2202985,9
1689041026.2702985,8
1689041026.3213038,19
1689041026.3712988,53
1689041026.4212985,79
1689041026.4702985,75
1689041026.520299,62
1689041026.5703025,49
1689041026.620967,42
1689041026.6709604,40
1689041026.7099617,40
1689041026.7569602,38
1689041026.8069649,30
1689041026.8569622,23
1689041026.9069607,18
1689041026.9569645,15
1689041027.0069618,13
1689041027.0569646,20
1689041027.106964,49
1689041027.1569605,79
1689041027.2069592,80
1689041027.2561285,70
1689041027.306153,58
1689041027.3561535,49
1689041027.4061518,46
1689041027.456153,45
1689041027.5071523,40
1689041027.5561523,34
1689041027.6061523,27
1689041027.6561558,23
1689041027.706152,21
1689041027.7391531,21
1689041027.789152,30
1689041027.8391511,57
1689041027.8892019,79
1689041027.9393396,78
1689041027.9893353,70
1689041028.039335,62
1689041028.0893342,56
1689041028.139335,55
1689041028.1893394,53
1689041028.2393363,49
1689041028.2893322,43
1689041028.339336,39
1689041028.389333,36
1689041028.4393318,36
1689041028.4893358,35
1689041028.5393322,39
1689041028.5893354,53
1689041028.6393375,71
1689041028.6893358,69
1689041028.7233326,63
1689041028.7733312,59
1689041028.8233325,54
1689041028.8733323,51
1689041028.9233353,50
1689041028.9733305,47
1689041029.023335,42
1689041029.073331,39
1689041029.123331,36
1689041029.173331,34
1689041029.2233303,32
1689041029.2733305,31
1689041029.323971,39
1689041029.3739684,55
1689041029.4239712,64
1689041029.4739726,61
1689041029.5239708,55
1689041029.5739672,50
1689041029.6239662,47
1689041029.6739666,45
1689041029.709973,44
1689041029.7569711,41
1689041029.8069718,38
1689041029.8569717,35
1689041029.9069674,33
1689041029.9569654,32
1689041030.006966,31
1689041030.0569656,31
1689041030.1069715,30
1689041030.1569705,31
1689041030.206965,44
1689041030.2569697,60
1689041030.3069658,61
1689041030.3569698,56
1689041030.4069655,51
1689041030.4569695,48
1689041030.5069697,47
1689041030.5569642,46
1689041030.606969,43
1689041030.656969,39
1689041030.7069645,35
1689041030.7409644,33
1689041030.7909718,32
1689041030.8409646,30
1689041030.8909702,28
1689041030.940964,25
1689041030.990965,22
1689041031.0409684,19
1689041031.0909684,30
1689041031.1409643,51
1689041031.1909683,62
1689041031.2409647,57
1689041031.2909634,50
1689041031.3409693,45
1689041031.3909645,42
1689041031.440963,42
1689041031.4909658,41
1689041031.5409632,38
1689041031.5909646,32
1689041031.6409645,26
1689041031.6909688,21
1689041031.7239676,16
1689041031.773963,13
1689041031.8239622,9
1689041031.8739674,7
1689041031.923967,5
1689041031.9739623,5
1689041032.0239668,28
1689041032.073962,60
1689041032.1239693,68
1689041032.1739624,58
1689041032.2239625,46
1689041032.2729614,39
1689041032.323963,38
1689041032.3739614,38
1689041032.423966,34
1689041032.473961,26
1689041032.5239697,18
1689041032.5739663,12
1689041032.6239657,8
1689041032.673961,6
1689041032.7099607,5
1689041032.7569625,5
1689041032.806961,8
1689041032.8569653,34
1689041032.9069612,71
1689041032.9569616,83
1689041033.0069613,74
1689041033.0569649,61
1689041033.10696,49
1689041033.156965,43
1689041033.2069614,41
1689041033.2569652,37
1689041033.3069599,29
1689041033.3569653,20
1689041033.4069595,14
1689041033.4569643,10
1689041033.506961,9
1689041033.5569646,9
1689041033.6079597,11
1689041033.6579595,37
1689041033.7079668,76
1689041033.7409592,90
1689041033.7909606,85
1689041033.840964,74
1689041033.89096,62
1689041033.940959,53
1689041033.99096,51
1689041034.0409596,50
1689041034.090509,44
1689041034.1405132,36
1689041034.190513,28
1689041034.2405083,21
1689041034.290513,18
1689041034.3405085,16
1689041034.390513,16
1689041034.4405143,36
1689041034.4905145,69
1689041034.5405123,81
1689041034.5905123,73
1689041034.6405118,63
1689041034.6905086,56
1689041034.7235117,53
1689041034.7795079,54
1689041034.8295074,53
1689041034.8795118,48
1689041034.9375122,42
1689041034.9875066,37
1689041035.037508,33
1689041035.0875072,30
1689041035.1375113,27
1689041035.1875072,26
1689041035.2375114,41
1689041035.2875073,66
1689041035.3375063,71
1689041035.3875062,65
1689041035.4375067,57
1689041035.4875073,52
1689041035.5375123,50
1689041035.5875077,49
1689041035.6375115,46
1689041035.6875062,41
1689041035.7215066,35
1689041035.772512,30
1689041035.8215053,25
1689041035.8715103,21
1689041035.9215062,18
1689041035.97151,14
1689041036.021507,16
1689041036.0725098,41
1689041036.1215055,67
1689041036.1715047,69
1689041036.221511,62
1689041036.2715056,54
1689041036.3215053,48
1689041036.3715105,46
1689041036.4215121,45
1689041036.471509,40
1689041036.5215094,31
1689041036.571509,20
1689041036.6215065,12
1689041036.6711385,9
1689041036.710138,7
1689041036.7541375,6
1689041036.804142,5
1689041036.8541381,3
1689041036.9041424,23
1689041036.954138,55
1689041037.0041385,79
1689041037.0541415,73
1689041037.1041415,62
1689041037.1541367,52
1689041037.204143,47
1689041037.2540677,46
1689041037.3041904,41
1689041037.3541865,33
1689041037.4041913,23
1689041037.454187,13
1689041037.504186,6
1689041037.5541875,0
1689041037.6041863,0
1689041037.6541853,0
1689041037.704742,0
1689041037.7377481,23
1689041037.7877426,42
1689041037.8377428,74
1689041037.8877463,74
1689041037.9373043,59
1689041037.9873004,43
1689041038.037305,33
1689041038.0872996,29
1689041038.137304,26
1689041038.1872997,23
1689041038.2372992,16
1689041038.2873037,10
1689041038.3372998,6
1689041038.3872995,3
1689041038.437301,3
1689041038.4872994,4
1689041038.5372992,13
1689041038.5872996,43
1689041038.6373034,74
1689041038.6872995,76
1689041038.72174,64
1689041038.7717416,54
1689041038.8217406,43
1689041038.8717415,40
1689041038.9227407,40
1689041038.9712903,40
1689041039.0212913,36
1689041039.071291,31
1689041039.121291,25
1689041039.171295,20
1689041039.221295,17
1689041039.2712903,16
1689041039.3222907,25
1689041039.3712902,58
1689041039.4212914,88
1689041039.4712944,89
1689041039.5211408,76
1689041039.5711398,63
1689041039.6211395,54
1689041039.6711385,51
1689041039.710144,49
1689041039.755139,45
1689041039.804139,38
1689041039.854143,30
1689041039.9041445,23
1689041039.9541383,19
1689041040.0041454,16
1689041040.054139,17
1689041040.1041389,40
1689041040.154143,78
1689041040.2041392,91
1689041040.2541387,83
1689041040.3041422,72
1689041040.35422,62
1689041040.4042747,56
1689041040.4543517,53
1689041040.5043566,48
1689041040.554351,41
1689041040.604352,35
1689041040.654351,28
1689041040.7043507,23
1689041040.7383509,19
1689041040.7883513,17
1689041040.838351,27
1689041040.8883507,58
1689041040.9383547,82
1689041040.988355,79
1689041041.038351,68
1689041041.0883546,58
1689041041.1383505,50
1689041041.1884031,47
1689041041.2383661,46
1689041041.2883673,42
1689041041.3383663,37
1689041041.3883674,30
1689041041.4383726,24
1689041041.488366,21
1689041041.5383675,19
1689041041.5883665,18
1689041041.6383708,33
1689041041.6883702,64
1689041041.721367,79
1689041041.771366,76
1689041041.8213658,66
1689041041.8710785,57
1689041041.9210782,51
1689041041.9715421,49
1689041042.0215423,46
1689041042.0715425,40
1689041042.121545,30
1689041042.171538,23
1689041042.2215416,19
1689041042.2715418,18
1689041042.3215423,18
1689041042.3715384,17
1689041042.4215417,16
1689041042.4725373,32
1689041042.522543,64
1689041042.5715373,78
1689041042.621542,71
1689041042.671541,61
1689041042.7105384,53
1689041042.754538,50
1689041042.8045387,48
1689041042.8545408,46
1689041042.9045365,40
1689041042.9545403,31
1689041043.0045364,26
1689041043.054537,22
1689041043.10454,21
1689041043.15454,20
1689041043.2045367,19
1689041043.2555401,20
1689041043.3056693,47
1689041043.3556688,73
1689041043.405664,75
1689041043.4556723,64
1689041043.5056686,53
1689041043.5556686,44
1689041043.6056647,41
1689041043.6556683,40
1689041043.7056687,34
1689041043.7436683,25
1689041043.791668,18
1689041043.841668,13
1689041043.8916695,9
1689041043.9416685,9
1689041043.9916632,9
1689041044.0416682,16
1689041044.0916677,46
1689041044.1416628,75
1689041044.1916647,72
1689041044.2416675,57
1689041044.2916641,42
1689041044.3416631,36
1689041044.3916671,36
1689041044.4416711,37
1689041044.4916625,33
1689041044.5416634,27
1689041044.5916634,21
1689041044.641667,17
1689041044.6916666,16
1689041044.7246695,17
1689041044.7746637,28
1689041044.8246667,59
1689041044.8746624,81
1689041044.9246662,75
1689041044.974663,61
1689041045.0246663,48
1689041045.074662,41
1689041045.1246657,40
1689041045.1746619,38
1689041045.2246606,31
1689041045.274661,22
1689041045.3246655,14
1689041045.3746622,8
1689041045.4246655,5
1689041045.4746614,22
1689041045.5246656,56
1689041045.574661,73
1689041045.6246622,65
1689041045.6746652,52
1689041045.7106605,43
1689041045.7606606,40
1689041045.8106618,41
1689041045.8606656,41
1689041045.91066,38
1689041045.9606647,31
1689041046.0106611,26
1689041046.0606616,21
1689041046.1106608,29
1689041046.1606655,61
1689041046.2106655,74
1689041046.2606645,68
1689041046.31066,58
1689041046.3606608,48
1689041046.4106638,42
1689041046.4606664,41
1689041046.5106647,40
1689041046.5606594,34
1689041046.6106594,27
1689041046.6606631,23
1689041046.7106595,23
1689041046.7606645,47
1689041046.8106592,69
1689041046.8606634,69
1689041046.922663,61
1689041046.9716628,52
1689041047.021663,48
1689041047.0716627,48
1689041047.1216626,46
1689041047.1716645,41
1689041047.2216625,36
1689041047.2716625,31
1689041047.3216653,28
1689041047.3736572,38
1689041047.4216573,57
1689041047.472665,64
1689041047.5226576,59
1689041047.5726576,52
1689041047.6226618,46
1689041047.6726582,43
1689041047.7106574,43
1689041047.7556574,43
1689041047.8056567,40
1689041047.855658,37
1689041047.905661,33
1689041047.9556625,31
1689041048.0056562,37
1689041048.0556607,50
1689041048.1056573,63
1689041048.1553078,61
1689041048.2053134,56
1689041048.2553124,50
1689041048.3053133,46
1689041048.3553126,44
1689041048.405308,44
1689041048.4553077,41
1689041048.5053146,39
1689041048.555307,37
1689041048.6053114,36
1689041048.6553116,35
1689041048.7053113,41
1689041048.7383115,60
1689041048.7883077,65
1689041048.8383071,66
1689041048.8883064,62
1689041048.938311,58
1689041048.9883077,53
1689041049.0383108,50
1689041049.0883071,48
1689041049.13886,45
1689041049.188867,40
1689041049.23886,37
1689041049.2888603,34
1689041049.338864,32
1689041049.3888602,31
1689041049.438861,32
1689041049.4888668,32
1689041049.5388644,38
1689041049.5888598,52
1689041049.6388638,60
1689041049.68886,57
1689041049.72286,53
1689041049.7778606,49
1689041049.8278599,45
1689041049.877859,44
1689041049.9388638,44
1689041049.9884079,42
1689041050.0384119,40
1689041050.088408,37
1689041050.1384115,35
1689041050.1884072,33
1689041050.2384117,32
1689041050.2884114,32
1689041050.3384116,31
1689041050.388412,29
1689041050.4384112,37
1689041050.4884114,53
1689041050.538411,62
1689041050.5884082,58
1689041050.638407,53
1689041050.6884105,48
1689041050.7224107,44
1689041050.7724109,43
1689041050.822411,42
1689041050.87241,40
1689041050.9224064,36
1689041050.9724104,32
1689041051.0220275,30
1689041051.0720274,28
1689041051.1220233,26
1689041051.1720245,24
1689041051.2220232,21
1689041051.2730274,20
1689041051.3240228,35
1689041051.3730295,54
1689041051.4220273,58
1689041051.4720285,52
1689041051.5230312,46
1689041051.572027,42
1689041051.6220267,40
1689041051.6720266,40
1689041051.7110264,37
1689041051.7550263,34
1689041051.8050263,29
1689041051.855023,25
1689041051.905022,21
1689041051.9550214,18
1689041052.005026,15
1689041052.056022,13
1689041052.1050222,11
1689041052.1550214,16
1689041052.2060258,46
1689041052.2550256,62
1689041052.3050256,59
1689041052.3560257,49
1689041052.4050255,41
1689041052.4550254,37
1689041052.5050228,36
1689041052.555021,37
1689041052.6050208,33
1689041052.655025,27
1689041052.705025,21
1689041052.7390249,17
1689041052.790021,15
1689041052.839026,15
1689041052.8890207,15
1689041052.9390216,16
1689041052.9890263,34
1689041053.039024,61
1689041053.08902,68
1689041053.1390197,58
1689041053.1890624,47
1689041053.2390254,39
1689041053.2890198,36
1689041053.339024,37
1689041053.3890202,35
1689041053.4390237,29
1689041053.48902,24
1689041053.5390234,21
1689041053.5890238,19
1689041053.6390233,18
1689041053.6890194,23
1689041053.7230191,49
1689041053.7730205,67
1689041053.8220232,74
1689041053.8720229,64
1689041053.9230187,54
1689041053.9720225,45
1689041054.0220187,41
1689041054.0720186,42
1689041054.1220183,40
1689041054.1730177,35
1689041054.222022,28
1689041054.2720196,24
1689041054.323018,21
1689041054.3720174,19
1689041054.4230223,33
1689041054.4730184,60
1689041054.5220256,73
1689041054.5720198,66
1689041054.6220217,57
1689041054.6720219,49
1689041054.7110217,46
1689041054.7580256,47
1689041054.8080215,45
1689041054.8580172,40
1689041054.9080172,33
1689041054.9580212,28
1689041055.0080166,25
1689041055.0580816,25
1689041055.108021,40
1689041055.1580224,62
1689041055.2080169,69
1689041055.2580168,62
1689041055.3080163,52
1689041055.358017,46
1689041055.4230204,44
1689041055.472016,45
1689041055.523017,42
1689041055.5720203,37
1689041055.6220202,30
1689041055.6720202,25
1689041055.71102,21
1689041055.75802,20
1689041055.8080196,35
1689041055.8590157,59
1689041055.908015,66
1689041055.9580154,58
1689041056.0080163,49
1689041056.0580194,43
1689041056.1090162,41
1689041056.158019,42
1689041056.2080224,40
1689041056.259015,34
1689041056.3080196,27
1689041056.358015,22
1689041056.4080186,18
1689041056.4580185,16
1689041056.508014,21
1689041056.5590189,46
1689041056.6080194,69
1689041056.6580148,67
1689041056.7080133,56
1689041056.746014,47
1689041056.794014,44
1689041056.8440146,43
1689041056.8940136,44
1689041056.9530177,41
1689041057.0030138,35
1689041057.0530148,27
1689041057.1030176,21
1689041057.1540134,17
1689041057.2040129,14
1689041057.2530174,16
1689041057.3030133,39
1689041057.353017,66
1689041057.4030142,68
1689041057.4540124,57
1689041057.5030172,45
1689041057.5530133,39
1689041057.6040173,39
1689041057.653013,40
1689041057.7040172,38
1689041057.7360134,31
1689041057.7860162,27
1689041057.8360121,21
1689041057.886017,15
1689041057.9390175,11
1689041057.989016,7
1689041058.0390122,11
1689041058.0900156,40
1689041058.1390185,65
1689041058.1890159,61
1689041058.2390156,45
1689041058.2900116,31
1689041058.3390155,23
1689041058.389011,21
1689041058.4390113,21
1689041058.4890118,18
1689041058.539011,12
1689041058.589015,7
1689041058.639016,4
1689041058.6890147,2
1689041058.722015,2
1689041058.7780118,11
1689041058.828015,41
1689041058.8786523,68
1689041058.9396527,66
1689041058.9896517,49
1689041059.0396516,36
1689041059.089647,30
1689041059.1396472,30
1689041059.1896515,29
1689041059.2396467,24
1689041059.2896512,19
1689041059.3396468,16
1689041059.3896513,13
1689041059.453648,12
1689041059.503651,25
1689041059.5536463,62
1689041059.6036582,91
1689041059.6536508,86
1689041059.7036467,72
1689041059.7426505,62
1689041059.7926457,60
1689041059.8426464,61
1689041059.8922083,59
1689041059.942209,52
1689041059.9922042,43
1689041060.0422041,37
1689041060.0922036,32
1689041060.142208,30
1689041060.192205,37
1689041060.2422078,65
1689041060.2922044,86
1689041060.3422039,81
1689041060.3922076,70
1689041060.442204,61
1689041060.4922042,56
1689041060.5422075,55
1689041060.5922086,52
1689041060.6422157,46
1689041060.6932027,39
1689041060.7252073,32
1689041060.7752025,28
1689041060.8252032,24
1689041060.8757672,21
1689041060.9322984,25
1689041060.9814641,54
1689041061.0314639,72
1689041061.0814598,70
1689041061.131464,60
1689041061.1814601,51
1689041061.2314637,46
1689041061.2814639,45
1689041061.3314588,44
1689041061.3814638,40
1689041061.43146,31
1689041061.4814591,23
1689041061.5314634,17
1689041061.581463,14
1689041061.6314628,11
1689041061.681463,9
1689041061.714463,26
1689041061.7644584,48
1689041061.8144586,70
1689041061.8644626,63
1689041061.9234626,49
1689041061.9734585,37
1689041062.0234623,33
1689041062.0734582,35
1689041062.1234584,35
1689041062.1734576,29
1689041062.2234619,22
1689041062.273459,15
1689041062.323464,10
1689041062.3734577,7
1689041062.4234614,6
1689041062.473462,8
1689041062.5269606,34
1689041062.574994,70
1689041062.6249971,79
1689041062.674991,66
1689041062.71199,52
1689041062.7589939,44
1689041062.8089898,38
1689041062.8589962,38
1689041062.9089937,36
1689041062.9589942,29
1689041063.0089936,22
1689041063.0589933,16
1689041063.1089897,12
1689041063.1589935,10
1689041063.2099893,10
1689041063.2589934,22
1689041063.3089933,56
1689041063.358994,84
1689041063.4089932,82
1689041063.4589896,68
1689041063.5089886,54
1689041063.558993,46
1689041063.6089888,46
1689041063.6589885,48
1689041063.7089925,44
1689041063.7589898,32
1689041063.808993,28
1689041063.8589923,26
1689041063.9089925,28
1689041063.9589918,30
1689041064.0089884,33
1689041064.059988,57
1689041064.1099918,84
1689041064.1589916,84
1689041064.2099876,74
1689041064.258993,65
1689041064.3089876,58
1689041064.3589911,56
1689041064.408994,55
1689041064.4589872,50
1689041064.5089915,43
1689041064.558987,37
1689041064.6099894,31
1689041064.6589875,28
1689041064.708986,25
1689041064.7469912,23
1689041064.794991,22
1689041064.8479905,32
1689041064.8979864,61
1689041064.9539855,70
1689041065.00299,60
1689041065.0529876,49
1689041065.10399,40
1689041065.1529899,39
1689041065.2029865,40
1689041065.252987,38
1689041065.3029923,29
1689041065.3529904,19
1689041065.402986,11
1689041065.4529848,5
1689041065.5039854,2
1689041065.5529895,0
1689041065.6029844,0
1689041065.653985,14
1689041065.7059848,50
1689041065.7459855,74
1689041065.7929852,69
1689041065.8429866,53
1689041065.8925354,40
1689041065.9425392,32
1689041065.9925358,32
1689041066.0425391,32
1689041066.0925405,29
1689041066.1425352,23
1689041066.1925397,17
1689041066.2425349,12
1689041066.2925348,11
1689041066.3425393,12
1689041066.3925405,20
1689041066.4425337,51
1689041066.492536,84
1689041066.5425336,86
1689041066.5925403,72
1689041066.6425347,57
1689041066.692539,47
1689041066.7265341,47
1689041066.7765336,50
1689041066.8265338,54
1689041066.8765347,49
1689041066.9265378,40
1689041066.9765382,34
1689041067.0265374,31
1689041067.0765343,29
1689041067.1265333,34
1689041067.1765373,59
1689041067.2265375,81
1689041067.276538,78
1689041067.3265376,68
1689041067.376533,58
1689041067.426532,54
1689041067.4765368,53
1689041067.5265326,52
1689041067.5765376,46
1689041067.6265376,40
1689041067.6765363,32
1689041067.7125318,26
1689041067.759538,24
1689041067.8095326,22
1689041067.8595324,21
1689041067.9095366,38
1689041067.9595315,63
1689041068.0095367,70
1689041068.059532,61
1689041068.1095324,49
1689041068.1595318,40
1689041068.209531,38
1689041068.2595356,39
1689041068.3095372,35
1689041068.3595314,27
1689041068.4095318,17
1689041068.4595308,8
1689041068.5095363,1
1689041068.559531,0
1689041068.6095371,0
1689041068.6595364,5
1689041068.709535,40
1689041068.7435348,66
1689041068.7935297,66
1689041068.8435316,54
1689041068.8935318,40
1689041068.9435344,31
1689041068.9935343,30
1689041069.0435343,31
1689041069.0935302,28
1689041069.1435301,22
1689041069.1935298,16
1689041069.2435338,13
1689041069.293534,12
1689041069.3435338,14
1689041069.3935337,26
1689041069.4435334,62
1689041069.4935293,94
1689041069.5435288,94
1689041069.593529,82
1689041069.643533,71
1689041069.6935334,66
1689041069.7265284,65
1689041069.7765303,64
1689041069.826529,57
1689041069.8765333,49
1689041069.9265287,42
1689041069.9765282,37
1689041070.0265326,34
1689041070.0765324,33
1689041070.1265333,34
1689041070.1765287,52
1689041070.226528,72
1689041070.277532,72
1689041070.3265283,63
1689041070.3765326,55
1689041070.4263513,50
1689041070.4763503,50
1689041070.5263557,49
1689041070.5763557,44
1689041070.6263504,39
1689041070.6763544,32
1689041070.7123544,27
1689041070.7593503,25
1689041070.8093503,21
1689041070.8593504,18
1689041070.9093509,15
1689041070.959354,26
1689041071.0093536,53
1689041071.0593667,65
1689041071.1093488,56
1689041071.1593494,42
1689041071.2103536,32
1689041071.2603486,28
1689041071.3103547,30
1689041071.3603532,30
1689041071.4103532,25
1689041071.4603548,18
1689041071.5103495,12
1689041071.5603533,8
1689041071.6103487,7
1689041071.660353,7
1689041071.7103527,7
1689041071.7433488,18
1689041071.7933528,39
1689041071.8433545,72
1689041071.893348,79
1689041071.9433494,69
1689041071.9933476,56
1689041072.043348,45
1689041072.0933485,44
1689041072.1433473,49
1689041072.1933482,49
1689041072.2433517,43
1689041072.293348,37
1689041072.3433518,33
1689041072.3933513,32
1689041072.4433475,31
1689041072.4933515,30
1689041072.5433474,41
1689041072.5933516,67
1689041072.6433473,78
1689041072.6933477,70
1689041072.7264118,58
1689041072.776347,53
1689041072.826352,49
1689041072.8763516,50
1689041072.9263506,48
1689041072.9763508,42
1689041073.0264368,35
1689041073.0763469,27
1689041073.1263454,21
1689041073.176346,16
1689041073.22635,11
1689041073.2763455,8
1689041073.3263452,13
1689041073.3763516,41
1689041073.4263499,65
1689041073.4763455,60
1689041073.5263505,44
1689041073.5763457,31
1689041073.6263454,23
1689041073.6763449,24
1689041073.7123516,24
1689041073.7623453,22
1689041073.813349,16
1689041073.862345,11
1689041073.9243453,6
1689041073.9743493,4
1689041074.024349,4
1689041074.0753446,7
1689041074.1263437,31
1689041074.1763487,70
1689041074.2243435,87
1689041074.2743442,78
1689041074.3243494,64
1689041074.3743446,55
1689041074.4243445,55
1689041074.4743438,57
1689041074.5243433,53
1689041074.5743477,45
1689041074.6243477,39
1689041074.6743436,35
1689041074.7133477,33
1689041074.7573476,32
1689041074.8073428,33
1689041074.8573425,57
1689041074.9073431,77
1689041074.9573474,78
1689041075.007343,68
1689041075.057347,58
1689041075.107348,52
1689041075.1573431,51
1689041075.207343,52
1689041075.2573419,47
1689041075.3073428,39
1689041075.3573465,29
1689041075.4073462,19
1689041075.457342,11
1689041075.5073438,6
1689041075.5573463,3
1689041075.6073422,20
1689041075.657346,52
1689041075.7073464,65
1689041075.745342,57
1689041075.7933476,45
1689041075.8433466,33
1689041075.8933413,26
1689041075.9433417,26
1689041075.9933422,27
1689041076.0433416,24
1689041076.0933452,20
1689041076.1433413,16
1689041076.193345,13
1689041076.2433403,12
1689041076.293345,13
1689041076.3433414,28
1689041076.3933454,63
1689041076.4573405,83
1689041076.507341,74
1689041076.5573473,62
1689041076.607341,55
1689041076.6573446,54
1689041076.7073417,56
1689041076.741717,54
1689041076.7917902,50
1689041076.8417869,44
1689041076.8917875,41
1689041076.9417856,41
1689041076.99179,40
1689041077.0418007,40
1689041077.09179,53
1689041077.1417902,70
1689041077.191785,71
1689041077.2417855,63
1689041077.2917879,56
1689041077.3417895,51
1689041077.3917897,51
1689041077.4417894,50
1689041077.491786,46
1689041077.5417852,40
1689041077.5917842,35
1689041077.6417854,32
1689041077.6917846,29
1689041077.7247906,23
1689041077.774784,19
1689041077.8247902,24
1689041077.8747845,46
1689041077.9247856,58
1689041077.974789,49
1689041078.0247896,38
1689041078.074785,27
1689041078.124785,24
1689041078.1747847,27
1689041078.2247875,28
1689041078.2747927,24
1689041078.3247879,18
1689041078.3747838,13
1689041078.4247837,9
1689041078.4747837,8
1689041078.525789,7
1689041078.5757844,18
1689041078.6257892,49
1689041078.6747875,73
1689041078.7137833,69
1689041078.7577896,60
1689041078.807787,47
1689041078.857783,39
1689041078.9077873,40
1689041078.957787,42
1689041079.0077872,40
1689041079.057787,37
1689041079.1077826,35
1689041079.1577866,36
1689041079.2077866,38
1689041079.257784,40
1689041079.3077867,53
1689041079.3577814,74
1689041079.407786,79
1689041079.457786,72
1689041079.5078597,63
1689041079.5577822,57
1689041079.6077857,56
1689041079.6577818,55
1689041079.7077813,51
1689041079.7468615,45
1689041079.7947855,40
1689041079.8447814,37
1689041079.8947852,34
1689041079.944785,32
1689041079.994781,29
1689041080.0447853,34
1689041080.094785,50
1689041080.144785,59
1689041080.1947849,50
1689041080.244781,38
1689041080.2947848,28
1689041080.3447814,22
1689041080.3947806,23
1689041080.444781,23
1689041080.4947855,19
1689041080.5447843,13
1689041080.594785,8
1689041080.64478,5
1689041080.6947849,3
1689041080.7277842,3
1689041080.777781,3
1689041080.8277793,18
1689041080.8777838,53
1689041080.9277794,75
1689041080.9777834,67
1689041081.0272105,52
1689041081.077814,40
1689041081.1275046,35
1689041081.177507,37
1689041081.227434,38
1689041081.277365,36
1689041081.3271632,35
1689041081.3778038,35
1689041081.4277556,34
1689041081.4777553,34
1689041081.5277557,39
1689041081.5777555,62
1689041081.6277504,85
1689041081.6776645,83
1689041081.713323,72
1689041081.76025,65
1689041081.8103454,58
1689041081.8603454,55
1689041081.9103515,55
1689041081.9603498,52
1689041082.0103452,45
1689041082.0603442,39
1689041082.1109345,34
1689041082.159939,30
1689041082.2099392,27
1689041082.2609363,23
1689041082.3105001,30
1689041082.360042,52
1689041082.4106133,62
1689041082.4601562,52
1689041082.5101604,39
1689041082.5601604,28
1689041082.6101553,22
1689041082.660155,22
1689041082.710155,22
1689041082.744155,18
1689041082.7941556,13
1689041082.8441596,7
1689041082.894159,2
1689041082.94416,0
1689041082.994155,0
1689041083.044159,1
1689041083.094155,23
1689041083.1441555,60
1689041083.194155,78
1689041083.2441595,67
1689041083.2941587,50
1689041083.3441553,39
1689041083.3941545,35
1689041083.4441583,37
1689041083.4941542,36
1689041083.5441582,32
1689041083.594154,28
1689041083.6441534,26
1689041083.6941545,26
1689041083.727154,25
1689041083.7771533,32
1689041083.8281538,63
1689041083.8771527,92
1689041083.927158,90
1689041083.9771574,77
1689041084.027154,66
1689041084.0771573,60
1689041084.1271572,59
1689041084.1771572,57
1689041084.2271574,50
1689041084.2771573,42
1689041084.327158,36
1689041084.377157,30
1689041084.4271526,25
1689041084.4771569,21
1689041084.5271566,32
1689041084.5771563,56
1689041084.6271603,63
1689041084.677159,49
1689041084.7131531,34
1689041084.7641516,25
1689041084.8131561,19
1689041084.8631532,20
1689041084.924156,21
1689041084.9741576,17
1689041085.0241559,11
1689041085.075151,6
1689041085.1251516,4
1689041085.1751556,4
1689041085.2261515,6
1689041085.2771554,28
1689041085.326155,64
1689041085.3751557,80
1689041085.4251552,69
1689041085.4751549,52
1689041085.5251555,41
1689041085.57615,39
1689041085.625157,40
1689041085.6751552,38
1689041085.7131548,33
1689041085.7581556,30
1689041085.8081543,30
1689041085.8581548,31
1689041085.9081547,32
1689041085.958155,40
1689041086.0081508,76
1689041086.0581493,93
1689041086.1081502,87
1689041086.158154,75
1689041086.2081535,65
1689041086.2581506,61
1689041086.3081536,60
1689041086.3581495,58
1689041086.4081495,51
1689041086.4581487,44
1689041086.508149,38
1689041086.5581498,33
1689041086.608154,29
1689041086.658153,26
1689041086.708149,30
1689041086.7411528,52
1689041086.791153,59
1689041086.8411493,57
1689041086.891835,43
1689041086.9418354,31
1689041086.9916553,23
1689041087.041655,22
1689041087.0916514,24
1689041087.1416504,21
1689041087.1916552,16
1689041087.2416513,11
1689041087.2916548,7
1689041087.3416512,5
1689041087.3916497,4
1689041087.4416547,7
1689041087.4916499,30
1689041087.5416508,65
1689041087.5916545,79
1689041087.6416497,67
1689041087.6916542,51
1689041087.7256558,40
1689041087.7756555,38
1689041087.825654,41
1689041087.875655,43
1689041087.9266539,41
1689041087.9756496,38
1689041088.0256507,34
1689041088.0756495,33
1689041088.1256537,34
1689041088.1766536,36
1689041088.2266533,54
1689041088.2766492,79
1689041088.3256483,85
1689041088.375649,76
1689041088.4256532,66
1689041088.4756489,59
1689041088.5256488,57
1689041088.5756538,56
1689041088.6256485,51
1689041088.6756496,42
1689041088.7146485,34
1689041088.7586524,29
1689041088.8086526,23
1689041088.858653,17
1689041088.9086487,12
1689041088.9586542,9
1689041089.008652,21
1689041089.0586472,55
1689041089.108652,65
1689041089.1586485,54
1689041089.2086523,40
1689041089.2586515,28
1689041089.308647,25
1689041089.3586483,27
1689041089.4236512,27
1689041089.4726465,20
1689041089.5226543,14
1689041089.5726511,9
1689041089.6226509,7
1689041089.672647,7
1689041089.714646,8
1689041089.7556462,9
1689041089.805651,29
1689041089.8556507,65
1689041089.9056535,82
1689041089.9556465,74
1689041090.0056467,62
1689041090.0556502,54
1689041090.1056461,55
1689041090.1556456,57
1689041090.2056499,54
1689041090.25565,47
1689041090.30565,40
1689041090.3556497,37
1689041090.40565,33
1689041090.455645,30
1689041090.505646,28
1689041090.5586507,48
1689041090.6086454,74
1689041090.6586494,76
1689041090.7086446,65
1689041090.7426448,53
1689041090.79265,47
1689041090.8426447,43
1689041090.892649,43
1689041090.9426486,40
1689041090.9926498,32
1689041091.042644,21
1689041091.0926485,12
1689041091.1426437,5
1689041091.1926486,1
1689041091.2426443,0
1689041091.2926493,0
1689041091.3426445,17
1689041091.392648,51
1689041091.4426441,69
1689041091.4926486,59
1689041091.5426435,43
1689041091.592649,31
1689041091.6426482,26
1689041091.6926484,28
1689041091.7256482,28
1689041091.77565,25
1689041091.8256438,19
1689041091.8756435,14
1689041091.9256425,11
1689041091.9756434,10
1689041092.0256474,11
1689041092.0766487,26
1689041092.1256487,59
1689041092.175647,83
1689041092.2256465,78
1689041092.2756467,63
1689041092.325647,51
1689041092.3756423,50
1689041092.4256465,58
1689041092.4756415,62
1689041092.525646,57
1689041092.5756469,49
1689041092.6256423,44
1689041092.6756556,42
1689041092.7146418,40
1689041092.7586458,40
1689041092.808642,61
1689041092.8586411,80
1689041092.9086409,79
1689041092.9586468,67
1689041093.0086405,59
1689041093.0586405,54
1689041093.1086407,53
1689041093.158646,53
1689041093.2086468,48
1689041093.258641,40
1689041093.308646,33
1689041093.3586469,24
1689041093.4086413,15
1689041093.4596443,7
1689041093.5096464,7
1689041093.5596411,31
1689041093.6096394,60
1689041093.6596398,59
1689041093.7096393,46
1689041093.7426443,34
1689041093.7926404,29
1689041093.84264,29
1689041093.892644,34
1689041093.9426396,33
1689041093.992639,27
1689041094.0426388,20
1689041094.092639,16
1689041094.1426432,14
1689041094.1926436,15
1689041094.2426393,30
1689041094.292644,61
1689041094.3426437,78
1689041094.392639,71
1689041094.4426396,59
1689041094.492638,49
1689041094.5426426,50
1689041094.5926447,56
1689041094.642638,55
1689041094.6926432,50
1689041094.7256424,46
1689041094.7756388,45
1689041094.8256426,44
1689041094.8756394,44
1689041094.9266422,50
1689041094.9756377,64
1689041095.025642,70
1689041095.0756378,64
1689041095.1256382,55
1689041095.1756384,51
1689041095.2256417,50
1689041095.275643,49
1689041095.3256426,42
1689041095.3756375,33
1689041095.4256415,22
1689041095.4756422,15
1689041095.525642,13
1689041095.5756419,12
1689041095.625642,12
1689041095.6776366,26
1689041095.7146373,53
1689041095.759636,64
1689041095.8096414,59
1689041095.8596365,48
1689041095.909641,40
1689041095.9596364,38
1689041096.0096416,42
1689041096.0596359,42
1689041096.1096406,36
1689041096.159641,27
1689041096.2096364,21
1689041096.2596362,19
1689041096.309642,20
1689041096.3596358,23
1689041096.4096396,47
1689041096.4596355,73
1689041096.5096412,76
1689041096.5596406,69
1689041096.6096394,62
1689041096.6596346,58
1689041096.7096343,58
1689041096.742639,57
1689041096.7926352,54
1689041096.842634,50
1689041096.8926353,45
1689041096.9426413,41
1689041096.9926348,40
1689041097.0426338,38
1689041097.091982,37
1689041097.1420066,46
1689041097.1920023,60
1689041097.2420063,60
1689041097.2920027,62
1689041097.3420024,43
1689041097.3920062,32
1689041097.442006,31
1689041097.492005,33
1689041097.5420055,26
1689041097.5930157,11
1689041097.6420095,0
1689041097.692005,0
1689041097.7260044,0
1689041097.776004,0
1689041097.8270047,0
1689041097.8760087,0
1689041097.9260085,3
1689041097.9780054,62
1689041098.0260043,96
1689041098.076008,61
1689041098.126008,51
1689041098.1760082,42
1689041098.2260106,40
1689041098.2760096,43
1689041098.3260045,43
1689041098.3760028,40
1689041098.427003,39
1689041098.4760041,40
1689041098.5270076,40
1689041098.5760074,40
1689041098.6270037,40
1689041098.676003,49
1689041098.7140083,67
1689041098.7590032,73
1689041098.809009,69
1689041098.8590071,62
1689041098.9090035,56
1689041098.959007,52
1689041099.0090077,51
1689041099.0590043,48
1689041099.1090076,43
1689041099.1590025,39
1689041099.2090063,35
1689041099.2590027,32
1689041099.3090017,29
1689041099.3590088,25
1689041099.423009,20
1689041099.4730058,30
1689041099.5230021,51
1689041099.573006,55
1689041099.6230016,45
1689041099.6730015,35
1689041099.715002,29
1689041099.7560053,29
1689041099.8060052,33
1689041099.8560019,34
1689041099.906005,28
1689041099.959001,21
1689041100.009005,15
1689041100.0590005,12
1689041100.1090014,11
1689041100.1590009,11
1689041100.2090058,11
1689041100.259,25
1689041100.3120065,56
1689041100.362,73
1689041100.4120004,64
1689041100.4620042,52
1689041100.5120044,43
1689041100.5620012,41
1689041100.612001,46
1689041100.662,48
1689041100.7119992,44
1689041100.744999,40
1689041100.7954013,37
1689041100.845327,36
1689041100.8954163,37
1689041100.9454114,39
1689041100.9954119,48
1689041101.0454178,65
1689041101.0954146,71
1689041101.145416,64
1689041101.1954114,56
1689041101.2454119,50
1689041101.295412,48
1689041101.3454108,48
1689041101.3954115,45
1689041101.4454153,40
1689041101.4954112,33
1689041101.545411,27
1689041101.595416,20
1689041101.6454103,13
1689041101.695412,6
1689041101.729411,4
1689041101.7794101,17
1689041101.8294148,47
1689041101.8794148,59
1689041101.9294147,47
1689041101.9794104,34
1689041102.0294175,25
1689041102.0794144,24
1689041102.1294112,28
1689041102.1794095,28
1689041102.2294104,22
1689041102.279414,16
1689041102.3294141,11
1689041102.3794105,9
1689041102.4294138,8
1689041102.4794152,8
1689041102.529414,26
1689041102.5794134,60
1689041102.6294096,76
1689041102.67941,66
1689041102.715409,51
1689041102.7624087,43
1689041102.8124096,37
1689041102.8624132,40
1689041102.9124084,40
1689041102.9624138,39
1689041103.0124133,36
1689041103.0624127,35
1689041103.1124153,33
1689041103.1624124,32
1689041103.2124083,43
1689041103.2624123,70
1689041103.3124125,84
1689041103.362414,76
1689041103.4124074,65
1689041103.4624093,57
1689041103.5124073,54
1689041103.562412,54
1689041103.6124074,50
1689041103.6624117,42
1689041103.712408,36
1689041103.7454116,31
1689041103.7954073,29
1689041103.8454075,25
1689041103.8954113,22
1689041103.9454072,28
1689041103.995411,48
1689041104.0454113,61
1689041104.0954113,53
1689041104.1454074,40
1689041104.1954074,30
1689041104.2454066,26
1689041104.2954106,29
1689041104.3454063,30
1689041104.3954117,25
1689041104.4454064,17
1689041104.4954104,12
1689041104.5454104,9
1689041104.59541,8
1689041104.6454062,10
1689041104.6954124,31
1689041104.7294056,63
1689041104.7794278,74
1689041104.8294318,68
1689041104.8794322,54
1689041104.9294312,42
1689041104.979431,40
1689041105.029431,44
1689041105.0794272,43
1689041105.1294312,38
1689041105.179427,31
1689041105.2294307,26
1689041105.2794309,23
1689041105.3294258,23
1689041105.3794265,43
1689041105.4294267,76
1689041105.4794269,86
1689041105.5294309,77
1689041105.5794263,69
1689041105.6294303,64
1689041105.6794302,63
1689041105.7154303,60
1689041105.7624302,57
1689041105.812426,49
1689041105.8624296,43
1689041105.912426,40
1689041105.9624252,37
1689041106.012425,35
1689041106.0624301,40
1689041106.1124296,56
1689041106.1624298,61
1689041106.2124252,53
1689041106.2624292,42
1689041106.312425,36
1689041106.3624241,34
1689041106.4124303,35
1689041106.462429,33
1689041106.5124288,25
1689041106.5624287,17
1689041106.6124246,11
1689041106.6624243,9
1689041106.7124236,8
1689041106.7464244,10
1689041106.7964282,23
1689041106.846424,52
1689041106.8964283,66
1689041106.9464238,57
1689041106.9964287,46
1689041107.046423,38
1689041107.0964234,37
1689041107.1464238,40
1689041107.1964276,37
1689041107.2464273,30
1689041107.296428,24
1689041107.3464835,20
1689041107.3964236,19
1689041107.4464238,22
1689041107.4964273,42
1689041107.546439,71
1689041107.596423,78
1689041107.6464226,71
1689041107.6964226,64
1689041107.7294226,61
1689041107.7794228,60
1689041107.8294265,59
1689041107.8794224,55
1689041107.9294229,49
1689041107.979422,45
1689041108.0294278,42
1689041108.079426,41
1689041108.1294262,39
1689041108.1794274,44
1689041108.229426,57
1689041108.279423,64
1689041108.3294258,59
1689041108.3794215,51
1689041108.4574215,42
1689041108.507422,41
1689041108.5574212,40
1689041108.6074204,33
1689041108.6574204,25
1689041108.7077723,19
1689041108.7408426,17
1689041108.7908378,17
1689041108.8408425,17
1689041108.890837,19
1689041108.9438407,38
1689041108.9938445,58
1689041109.0438368,59
1689041109.0938408,52
1689041109.1438406,43
1689041109.1938362,40
1689041109.2438405,41
1689041109.2938418,42
1689041109.343836,38
1689041109.3938403,31
1689041109.4438446,26
1689041109.4938405,24
1689041109.54384,24
1689041109.5938356,23
1689041109.64384,27
1689041109.693835,46
1689041109.7268348,65
1689041109.7768347,66
1689041109.8268347,60
1689041109.8766842,54
1689041109.9258945,50
1689041109.975898,50
1689041110.026894,50
1689041110.075898,47
1689041110.1258993,43
1689041110.1778944,41
1689041110.2268977,41
1689041110.276898,40
1689041110.3268938,39
1689041110.3778975,38
1689041110.4288938,47
1689041110.4778974,60
1689041110.5278938,61
1689041110.5778975,56
1689041110.6268969,52
1689041110.676897,47
1689041110.714897,43
1689041110.7598934,41
1689041110.809893,38
1689041110.859892,33
1689041110.9098926,27
1689041110.9598927,22
1689041111.0098932,17
1689041111.0608923,15
1689041111.1098986,14
1689041111.1608927,13
1689041111.209896,24
1689041111.2598937,52
1689041111.3098962,61
1689041111.3598957,55
1689041111.4098957,47
1689041111.4598925,40
1689041111.509892,39
1689041111.5598922,41
1689041111.609898,40
1689041111.6598914,33
1689041111.7098951,27
1689041111.7428951,23
1689041111.7928956,22
1689041111.842895,23
1689041111.8928914,23
1689041111.9438918,27
1689041111.9928913,46
1689041112.0428948,65
1689041112.0928915,65
1689041112.1428964,59
1689041112.192895,53
1689041112.2428946,51
1689041112.2928905,52
1689041112.342894,51
1689041112.3928902,48
1689041112.44289,44
1689041112.4928904,42
1689041112.5438924,41
1689041112.5928936,40
1689041112.64289,38
1689041112.69289,41
1689041112.72789,55
1689041112.7768934,62
1689041112.8268895,60
1689041112.8768892,54
1689041112.9298892,49
1689041112.9768937,45
1689041113.0269046,42
1689041113.0768929,40
1689041113.1278892,36
1689041113.176893,29
1689041113.2268891,22
1689041113.2778935,16
1689041113.3268876,13
1689041113.3768923,13
1689041113.4268894,13
1689041113.4778929,25
1689041113.5268934,49
1689041113.5768883,59
1689041113.6268883,51
1689041113.6768885,42
1689041113.7158923,36
1689041113.7598886,35
1689041113.8098917,39
1689041113.8608887,40
1689041113.9098916,34
1689041113.9598875,26
1689041114.009887,22
1689041114.0608916,20
1689041114.1098912,19
1689041114.1598911,18
1689041114.209892,27
1689041114.2598872,51
1689041114.3098912,66
1689041114.359898,61
1689041114.4108908,51
1689041114.4598906,44
1689041114.5098908,44
1689041114.5598905,48
1689041114.6098902,48
1689041114.6608868,43
1689041114.7098904,40
1689041114.7488868,38
1689041114.7968862,38
1689041114.8458855,39
1689041114.8958862,39
1689041114.94589,46
1689041114.995887,61
1689041115.0458858,65
1689041115.095886,59
1689041115.1458895,52
1689041115.1958895,48
1689041115.2458894,47
1689041115.2958896,47
1689041115.3458858,43
1689041115.3968854,37
1689041115.4458852,30
1689041115.4968853,23
1689041115.5458858,19
1689041115.5968888,17
1689041115.645885,14
1689041115.6958892,11
1689041115.7308881,28
1689041115.7798893,45
1689041115.8298848,59
1689041115.8798845,52
1689041115.9308846,41
1689041115.9798846,35
1689041116.0308878,34
1689041116.0798879,38
1689041116.1308844,37
1689041116.1798854,31
1689041116.229884,24
1689041116.2798877,20
1689041116.3298874,17
1689041116.379884,17
1689041116.4298873,17
1689041116.4798849,30
1689041116.5298903,58
1689041116.5798872,71
1689041116.629885,63
1689041116.6808841,53
1689041116.715883,47
1689041116.7628872,47
1689041116.812883,50
1689041116.862887,51
1689041116.9128828,46
1689041116.962884,42
1689041117.0128868,40
1689041117.0628834,40
1689041117.1128879,40
1689041117.1628861,42
1689041117.2138863,55
1689041117.2638824,67
1689041117.3128858,65
1689041117.363882,56
1689041117.4128857,50
1689041117.462886,47
1689041117.512882,48
1689041117.5628853,46
1689041117.6128864,41
1689041117.6628857,36
1689041117.7128818,31
1689041117.7468855,29
1689041117.7968814,28
1689041117.846881,25
1689041117.8968854,19
1689041117.946881,22
1689041117.996881,42
1689041118.0468845,55
1689041118.0978854,48
1689041118.1468847,39
1689041118.1968853,32
1689041118.2468805,32
1689041118.2968843,37
1689041118.3468843,37
1689041118.3978844,30
1689041118.4468842,25
1689041118.4978802,19
1689041118.5468845,15
1689041118.596884,14
1689041118.6478791,14
1689041118.6968837,26
1689041118.7298834,54
1689041118.7858837,69
1689041118.83588,65
1689041118.8858833,54
1689041118.9438834,43
1689041118.9938831,40
1689041119.0438802,44
1689041119.0938828,44
1689041119.1438792,39
1689041119.1938827,32
1689041119.2438788,30
1689041119.2938828,29
1689041119.3448787,31
1689041119.393883,41
1689041119.4448786,62
1689041119.4938784,73
1689041119.5438783,68
1689041119.5948784,60
1689041119.6438782,54
1689041119.693878,53
1689041119.7268822,53
1689041119.777878,51
1689041119.826882,45
1689041119.8778787,40
1689041119.9278817,36
1689041119.976882,35
1689041120.0268817,32
1689041120.0768816,29
1689041120.1288774,34
1689041120.1788816,51
1689041120.226881,60
1689041120.2778776,52
1689041120.326881,40
1689041120.3768768,33
1689041120.440877,33
1689041120.4908772,38
1689041120.540881,34
1689041120.5908809,26
1689041120.6408763,19
1689041120.6908765,15
1689041120.7248802,14
1689041120.7748764,14
1689041120.824881,13
1689041120.874876,22
1689041120.9268768,49
1689041120.9768798,67
1689041121.0268803,61
1689041121.076876,50
1689041121.1278796,40
1689041121.1788757,39
1689041121.2268798,42
1689041121.2768795,41
1689041121.3268793,34
1689041121.377883,27
1689041121.4268754,22
1689041121.4768803,21
1689041121.526879,20
1689041121.578876,22
1689041121.6288793,44
1689041121.6788788,70
1689041121.716875,74
1689041121.7638745,70
1689041121.813874,60
1689041121.8638787,56
1689041121.9138741,56
1689041121.9638782,55
1689041122.0148742,50
1689041122.0638783,43
1689041122.1148741,39
1689041122.1638741,37
1689041122.2138739,35
1689041122.2638788,36
1689041122.3138733,46
1689041122.3638742,61
1689041122.4138775,61
1689041122.4638774,53
1689041122.5148733,45
1689041122.563877,40
1689041122.6148734,39
1689041122.663877,36
1689041122.7138734,32
1689041122.746873,24
1689041122.7968721,16
1689041122.8468766,11
1689041122.8968766,8
1689041122.9468746,6
1689041122.996873,6
1689041123.0468738,25
1689041123.0968764,56
1689041123.1468723,67
1689041123.1968718,59
1689041123.2478766,48
1689041123.2968757,42
1689041123.3478723,43
1689041123.3968716,45
1689041123.4468765,40
1689041123.4968758,32
1689041123.5468755,25
1689041123.596877,21
1689041123.6468754,19
1689041123.6968718,19
1689041123.7298715,32
1689041123.7798755,49
1689041123.8298752,70
1689041123.8808892,66
1689041123.9298751,55
1689041123.980871,45
1689041124.029875,44
1689041124.079875,51
1689041124.1298747,53
1689041124.180872,47
1689041124.2298746,40
1689041124.27987,39
1689041124.3298748,39
1689041124.3798707,38
1689041124.4298744,44
1689041124.4798741,58
1689041124.529874,66
1689041124.5807219,59
1689041124.630721,53
1689041124.6807215,47
1689041124.7177207,45
1689041124.7677248,46
1689041124.817725,44
1689041124.8677247,38
1689041124.9287245,30
1689041124.9787204,20
1689041125.0287247,13
1689041125.0787406,8
1689041125.1297362,6
1689041125.1807418,20
1689041125.2307405,47
1689041125.2787402,60
1689041125.3287401,51
1689041125.378735,40
1689041125.4287357,32
1689041125.4787397,34
1689041125.5287402,40
1689041125.5787394,38
1689041125.628736,30
1689041125.6787393,22
1689041125.7177355,18
1689041125.7617395,16
1689041125.8117392,15
1689041125.861838,16
1689041125.9108367,36
1689041125.9618368,63
1689041126.0118325,69
1689041126.0608382,59
1689041126.1118317,46
1689041126.1618314,40
1689041126.2118318,42
1689041126.2608361,45
1689041126.311836,40
1689041126.3608317,35
1689041126.4118326,34
1689041126.4618309,37
1689041126.5118308,39
1689041126.5618358,42
1689041126.6118357,59
1689041126.6608315,73
1689041126.7118351,71
1689041126.764832,58
1689041126.8148324,54
1689041126.8648317,53
1689041126.9149053,52
1689041126.9648354,48
1689041127.0148346,41
1689041127.064836,37
1689041127.1148348,35
1689041127.1648302,34
1689041127.2148347,32
1689041127.2638347,38
1689041127.3148303,53
1689041127.3648303,58
1689041127.4148293,58
1689041127.4648345,33
1689041127.5148294,17
1689041127.5638635,22
1689041127.6138625,32
1689041127.6638682,27
1689041127.713867,11
1689041127.746868,0
1689041127.797862,0
1689041127.8468683,0
1689041127.897693,0
1689041127.9476924,0
1689041127.9975657,26
1689041128.0475652,78
1689041128.097569,91
1689041128.1475654,55
1689041128.197561,42
1689041128.2475605,35
1689041128.2975657,37
1689041128.347024,40
1689041128.3970191,38
1689041128.4473586,31
1689041128.4975023,26
1689041128.5476172,24
1689041128.5971627,24
1689041128.6475406,30
1689041128.697537,54
1689041128.7315366,74
1689041128.7815402,74
1689041128.8315358,65
1689041128.88154,56
1689041128.9315357,54
1689041128.9815397,56
1689041129.0315402,54
1689041129.0815406,48
1689041129.1315358,41
1689041129.1815348,38
1689041129.2315397,35
1689041129.281539,33
1689041129.331535,37
1689041129.3815396,50
1689041129.4315395,62
1689041129.481539,58
1689041129.5315347,48
1689041129.5815341,40
1689041129.6315393,35
1689041129.6810877,35
1689041129.7170877,34
1689041129.767083,31
1689041129.8170874,24
1689041129.8670874,17
1689041129.9280832,13
1689041129.9780874,11
1689041130.0280874,12
1689041130.079088,30
1689041130.128087,56
1689041130.1780872,64
1689041130.2280827,55
1689041130.2780867,44
1689041130.3280876,38
1689041130.3780866,40
1689041130.4280868,42
1689041130.4780865,39
1689041130.528086,31
1689041130.5780864,26
1689041130.6280828,23
1689041130.6786919,23
1689041130.7173538,29
1689041130.7613585,42
1689041130.8113523,67
1689041130.8613565,74
1689041130.911357,66
1689041130.9613566,55
1689041131.011352,51
1689041131.061443,51
1689041131.112671,52
1689041131.1626494,47
1689041131.2123027,41
1689041131.2626646,38
1689041131.312154,36
1689041131.3621485,34
1689041131.4121485,38
1689041131.4621449,51
1689041131.512144,62
1689041131.562149,58
1689041131.6121438,50
1689041131.6621442,43
1689041131.712144,40
1689041131.750143,40
1689041131.798144,37
1689041131.848148,29
1689041131.8979,21
1689041131.9478953,14
1689041131.997925,11
1689041132.047925,10
1689041132.0989258,10
1689041132.1479247,21
1689041132.1979258,49
1689041132.2479255,64
1689041132.2979293,57
1689041132.3479247,46
1689041132.3979292,37
1689041132.4479291,37
1689041132.4979293,40
1689041132.5479288,40
1689041132.597925,34
1689041132.647925,27
1689041132.697929,24
1689041132.7309284,23
1689041132.7809253,23
1689041132.8309283,31
1689041132.8809283,52
1689041132.930929,68
1689041132.9809282,63
1689041133.0309236,53
1689041133.0809245,45
1689041133.1309283,46
1689041133.1809247,51
1689041133.230923,51
1689041133.2809274,44
1689041133.330923,38
1689041133.3809235,35
1689041133.4449236,37
1689041133.4949276,40
1689041133.544923,48
1689041133.594927,61
1689041133.644929,62
1689041133.6949272,54
1689041133.727927,46
1689041133.783923,43
1689041133.833927,44
1689041133.8839223,45
1689041133.9449227,41
1689041133.9949267,34
1689041134.0449224,26
1689041134.0949264,18
1689041134.1459227,10
1689041134.194926,6
1689041134.244927,7
1689041134.2949219,28
1689041134.3449225,53
1689041134.3949258,57
1689041134.4449222,47
1689041134.4949257,37
1689041134.5449257,32
1689041134.5949256,36
1689041134.6449215,39
1689041134.6949208,35
1689041134.7279272,27
1689041134.7779212,23
1689041134.8279252,19
1689041134.8779254,16
1689041134.9279256,15
1689041134.9799254,26
1689041135.0299246,53
1689041135.0779207,67
1689041135.1279202,60
1689041135.1779206,49
1689041135.2279198,40
1689041135.2789204,40
1689041135.3289242,44
1689041135.3799205,42
1689041135.4289243,38
1689041135.4789202,33
1689041135.528924,32
1689041135.57892,34
1689041135.6289241,42
1689041135.6789205,59
1689041135.716919,71
1689041135.7619252,70
1689041135.811935,63
1689041135.8619237,55
1689041135.911919,51
1689041135.9619231,51
1689041136.0119188,49
1689041136.061923,44
1689041136.1119273,39
1689041136.1619182,35
1689041136.2122276,34
1689041136.2618396,33
1689041136.312836,31
1689041136.3618395,39
1689041136.411836,55
1689041136.4618347,55
1689041136.5118346,53
1689041136.5628405,33
1689041136.6128397,22
1689041136.661839,27
1689041136.7128346,35
1689041136.749839,30
1689041136.7978392,19
1689041136.8478386,5
1689041136.8978343,0
1689041136.9478393,0
1689041136.9978385,0
1689041137.0488386,3
1689041137.0978384,44
1689041137.1478388,84
1689041137.197838,82
1689041137.2488348,62
1689041137.297838,43
1689041137.3488333,39
1689041137.3978379,46
1689041137.4478338,46
1689041137.4978375,36
1689041137.5478327,24
1689041137.5978377,18
1689041137.6488373,17
1689041137.6978374,20
1689041137.7308376,36
1689041137.7808332,60
1689041137.8308377,95
1689041137.880833,97
1689041137.930837,84
1689041137.9808323,70
1689041138.0318341,63
1689041138.0818324,64
1689041138.130832,60
1689041138.181832,51
1689041138.2318377,40
1689041138.2828367,34
1689041138.3318336,31
1689041138.3818367,29
1689041138.4328315,29
1689041138.482833,48
1689041138.5318317,75
1689041138.581832,76
1689041138.6328409,57
1689041138.6828315,37
1689041138.7178354,25
1689041138.7648327,26
1689041138.8148355,30
1689041138.8648322,21
1689041138.9148312,4
1689041138.9648354,0
1689041139.0148315,0
1689041139.064831,0
1689041139.114835,0
1689041139.1648314,0
1689041139.2158303,34
1689041139.264835,82
1689041139.3158305,86
1689041139.3648348,52
1689041139.4158318,40
1689041139.4658303,35
1689041139.51583,37
1689041139.564836,40
1689041139.6158304,36
1689041139.6648362,30
1689041139.71583,25
1689041139.7488291,23
1689041139.798834,22
1689041139.8478336,22
1689041139.8978295,37
1689041139.9488335,62
1689041139.9978297,72
1689041140.0488424,67
1689041140.0978334,58
1689041140.1478295,53
1689041140.198834,54
1689041140.247833,55
1689041140.298829,49
1689041140.348828,42
1689041140.3978329,38
1689041140.4478328,35
1689041140.4978328,34
1689041140.5488286,34
1689041140.5988286,45
1689041140.6478276,60
1689041140.6978283,62
1689041140.731828,53
1689041140.7818322,47
1689041140.8318324,40
1689041140.8818321,39
1689041140.9318326,37
1689041140.981832,32
1689041141.03242,24
1689041141.0824249,17
1689041141.1324222,12
1689041141.1824243,10
1689041141.2324247,8
1689041141.2824202,9
1689041141.33242,28
1689041141.3824244,57
1689041141.43242,65
1689041141.482424,54
1689041141.5324194,42
1689041141.582424,35
1689041141.6324236,37
1689041141.6824245,40
1689041141.718424,36
1689041141.7654197,31
1689041141.8154235,23
1689041141.8654191,18
1689041141.9154232,16
1689041141.965425,16
1689041142.015423,27
1689041142.065423,55
1689041142.115419,72
1689041142.1654181,66
1689041142.2154229,53
1689041142.2654185,42
1689041142.315423,41
1689041142.3654249,45
1689041142.4154177,43
1689041142.465418,36
1689041142.515422,29
1689041142.565418,23
1689041142.6154227,20
1689041142.6654181,17
1689041142.715422,22
1689041142.7494218,46
1689041142.7994223,64
1689041142.8494172,68
1689041142.8994305,58
1689041142.9494345,46
1689041142.9994295,41
1689041143.0494342,47
1689041143.0994298,53
1689041143.1494339,50
1689041143.1994526,43
1689041143.2494543,40
1689041143.2994487,39
1689041143.3494523,39
1689041143.3994484,39
1689041143.4494517,50
1689041143.499462,67
1689041143.5494614,70
1689041143.5994616,65
1689041143.6494653,57
1689041143.6994607,51
1689041143.7324607,49
1689041143.7824652,49
1689041143.8324614,45
1689041143.882614,39
1689041143.931846,34
1689041143.9818466,30
1689041144.0318506,26
1689041144.0818503,20
1689041144.131846,15
1689041144.182099,31
1689041144.2321568,53
1689041144.2825327,54
1689041144.3326645,40
1689041144.3826685,26
1689041144.4326687,15
1689041144.4826686,15
1689041144.532664,18
1689041144.5826683,17
1689041144.6326642,14
1689041144.682387,13
1689041144.7183907,14
1689041144.7653906,16
1689041144.8153856,17
1689041144.8653903,21
1689041144.9153903,42
1689041144.9653857,70
1689041145.0153913,75
1689041145.0653863,66
1689041145.1153858,55
1689041145.16539,49
1689041145.2153852,50
1689041145.2653866,49
1689041145.3153894,43
1689041145.3653853,36
1689041145.4153895,30
1689041145.465386,26
1689041145.5153854,24
1689041145.5653894,23
1689041145.6153855,27
1689041145.665389,49
1689041145.7153893,68
1689041145.7533891,62
1689041145.8023849,56
1689041145.8523889,50
1689041145.9023848,52
1689041145.9523885,56
1689041146.0023885,53
1689041146.0524106,48
1689041146.1024053,44
1689041146.152405,43
1689041146.2024057,41
1689041146.2524097,40
1689041146.3024096,39
1689041146.3524067,45
1689041146.4164095,60
1689041146.4654057,61
1689041146.5164094,54
1689041146.5664043,48
1689041146.6164093,46
1689041146.666409,46
1689041146.7164054,43
1689041146.7494042,36
1689041146.7991252,30
1689041146.8491745,22
1689041146.8998427,16
1689041146.949347,11
1689041146.999041,8
1689041147.049663,9
1689041147.0988955,28
1689041147.1492522,56
1689041147.198903,64
1689041147.249211,56
1689041147.2997289,46
1689041147.3497293,40
1689041147.3997283,40
1689041147.449728,41
1689041147.4997284,38
1689041147.5497324,31
1689041147.5997322,25
1689041147.6497324,22
1689041147.6997275,21
1689041147.7327325,20
1689041147.7827322,20
1689041147.832732,31
1689041147.8827276,56
1689041147.9327378,69
1689041147.9827318,63
1689041148.0327313,54
1689041148.082732,46
1689041148.1327274,45
1689041148.1827273,48
1689041148.2327313,48
1689041148.2827263,44
1689041148.3327308,40
1689041148.382728,39
1689041148.4327314,38
1689041148.4827309,38
1689041148.5327308,39
1689041148.5827265,48
1689041148.632731,63
1689041148.6827264,64
1689041148.7187264,58
1689041148.7667305,54
1689041148.81673,49
1689041148.8667266,46
1689041148.916726,46
1689041148.9667304,42
1689041149.0167263,37
1689041149.0667315,33
1689041149.1167307,31
1689041149.1667297,30
1689041149.2167253,30
1689041149.266725,28
1689041149.3167255,33
1689041149.366725,50
1689041149.4167254,61
1689041149.4667292,57
1689041149.5167303,51
1689041149.566724,47
1689041149.6167293,44
1689041149.6667252,42
1689041149.7167246,40
1689041149.7497241,35
1689041149.7997293,32
1689041149.849724,28
1689041149.8997285,27
1689041149.949724,27
1689041149.9997244,26
1689041150.049724,25
1689041150.099728,29
1689041150.149724,47
1689041150.1997285,63
1689041150.2497244,60
1689041150.2997231,52
1689041150.3497283,47
1689041150.3997276,45
1689041150.4497237,45
1689041150.4997277,43
1689041150.5497231,38
1689041150.5997233,33
1689041150.6497233,30
1689041150.6997273,29
1689041150.733727,29
1689041150.788723,28
1689041150.838727,27
1689041150.8887255,27
1689041150.944727,43
1689041150.9947274,60
1689041151.0447218,58
1689041151.0947218,48
1689041151.1447232,40
1689041151.1947215,37
1689041151.2447262,38
1689041151.2947276,35
1689041151.3447263,26
1689041151.3947258,17
1689041151.444722,11
1689041151.494721,7
1689041151.5447218,5
1689041151.5947218,4
1689041151.6447215,3
1689041151.6947253,8
1689041151.7277257,33
1689041151.7887268,56
1689041151.8387268,57
1689041151.888725,43
1689041151.946721,31
1689041151.9967206,26
1689041152.0467248,29
1689041152.0967247,29
1689041152.146724,25
1689041152.1967204,20
1689041152.24672,18
1689041152.2958515,20
1689041152.3462803,25
1689041152.3962846,41
1689041152.4462838,72
1689041152.4962833,85
1689041152.546279,76
1689041152.5962799,64
1689041152.647279,57
1689041152.697283,57
1689041152.7302783,56
1689041152.7802832,52
1689041152.8302789,43
1689041152.8802826,36
1689041152.9302804,31
1689041152.9802785,27
1689041153.0302825,24
1689041153.080279,30
1689041153.1302783,53
1689041153.1802826,69
1689041153.2302778,61
1689041153.280282,51
1689041153.330282,43
1689041153.3802826,39
1689041153.430283,39
1689041153.4802773,38
1689041153.530277,32
1689041153.5802815,24
1689041153.6302814,19
1689041153.6802814,15
1689041153.7192774,14
1689041153.7632813,16
1689041153.813277,40
1689041153.863282,67
1689041153.9132812,70
1689041153.9632773,61
1689041154.013281,53
1689041154.0632806,46
1689041154.1132836,44
1689041154.163281,43
1689041154.2132761,37
1689041154.2632759,29
1689041154.3132803,25
1689041154.3632762,24
1689041154.41328,24
1689041154.4632769,37
1689041154.51328,66
1689041154.5632765,75
1689041154.613275,71
1689041154.6632757,66
1689041154.7132797,61
1689041154.7522764,58
1689041154.799276,58
1689041154.8492794,54
1689041154.9002793,49
1689041154.9502745,45
1689041155.0002751,42
1689041155.0506082,40
1689041155.100609,38
1689041155.1506076,41
1689041155.2006028,55
1689041155.2506082,63
1689041155.3006082,60
1689041155.3506036,57
1689041155.4006124,52
1689041155.4506073,46
1689041155.5006027,43
1689041155.5506072,40
1689041155.6006045,34
1689041155.6507955,28
1689041155.7002757,25
1689041155.7332757,24
1689041155.7832758,23
1689041155.8336122,21
1689041155.8836198,18
1689041155.9336166,17
1689041155.9836154,35
1689041156.0336192,56
1689041156.083619,60
1689041156.1336153,56
1689041156.183619,52
1689041156.2336152,45
1689041156.2830408,42
1689041156.3330374,42
1689041156.383041,38
1689041156.4330406,32
1689041156.4830413,27
1689041156.532844,25
1689041156.5828452,26
1689041156.632843,27
1689041156.6828477,26
1689041156.718843,23
1689041156.7658436,26
1689041156.8168478,44
1689041156.8664556,61
1689041156.9164557,61
1689041156.966451,58
1689041157.016456,54
1689041157.0664518,50
1689041157.1164553,50
1689041157.1664555,51
1689041157.2164555,48
1689041157.266451,45
1689041157.3164556,42
1689041157.3664553,40
1689041157.416455,40
1689041157.4664547,38
1689041157.5164554,36
1689041157.5664544,33
1689041157.6164508,39
1689041157.66645,53
1689041157.7164547,61
1689041157.7504494,58
1689041157.8004496,57
1689041157.8504546,53
1689041157.9004495,46
1689041157.9504542,42
1689041158.0004578,40
1689041158.050454,34
1689041158.1004498,26
1689041158.1504538,21
1689041158.2004535,20
1689041158.2504492,18
1689041158.3004487,17
1689041158.350453,14
1689041158.400449,12
1689041158.4504533,10
1689041158.5002315,9
1689041158.5502255,20
1689041158.6002254,49
1689041158.650229,66
1689041158.7002301,62
1689041158.7332296,58
1689041158.783225,54
1689041158.8332286,47
1689041158.8832283,45
1689041158.9332292,44
1689041158.9832244,39
1689041159.0332286,32
1689041159.0832245,28
1689041159.1332242,25
1689041159.1832285,25
1689041159.2332277,24
1689041159.2832284,23
1689041159.3332977,23
1689041159.3832276,40
1689041159.4332237,63
1689041159.4832225,70
1689041159.5332234,66
1689041159.5832274,61
1689041159.6332238,55
1689041159.683227,51
1689041159.719227,50
1689041159.7672231,48
1689041159.8172271,42
1689041159.8672228,38
1689041159.917227,35
1689041159.967227,33
1689041160.0172884,31
1689041160.0672243,30
1689041160.1172261,28
1689041160.1672223,24
1689041160.2172263,28
1689041160.267222,40
1689041160.3172233,58
1689041160.3672261,58
1689041160.417226,51
1689041160.467222,44
1689041160.5172257,39
1689041160.567222,36
1689041160.617226,34
1689041160.6672218,28
1689041160.7172267,19
1689041160.7502253,12
1689041160.8002253,10
1689041160.8502252,8
1689041160.9002583,8
1689041160.9502254,8
1689041161.0002213,7
1689041161.0502224,6
1689041161.100225,10
1689041161.150221,39
1689041161.200225,71
1689041161.2502248,75
1689041161.300231,65
1689041161.3502216,56
1689041161.4002206,47
1689041161.45022,45
1689041161.5002244,45
1689041161.5502238,40
1689041161.6002262,32
1689041161.6502237,26
1689041161.7002199,23
1689041161.7332244,20
1689041161.7832239,19
1689041161.8332238,17
1689041161.8832235,16
1689041161.9352198,25
1689041161.9832234,55
1689041162.033219,78
1689041162.0832233,73
1689041162.1332192,64
1689041162.1832232,58
1689041162.233223,56
1689041162.2832234,55
1689041162.3332226,53
1689041162.3832228,46
1689041162.4328449,40
1689041162.4828446,35
1689041162.5328407,33
1689041162.5828407,31
1689041162.6328397,29
1689041162.6828406,25
1689041162.7199066,26
1689041162.7678444,39
1689041162.8168442,63
1689041162.8668447,69
1689041162.9168441,60
1689041162.9668438,54
1689041163.01684,48
1689041163.0668457,43
1689041163.116844,42
1689041163.1668437,39
1689041163.2168436,31
1689041163.2678442,22
1689041163.3168435,12
1689041163.3668394,5
1689041163.4168391,2
1689041163.467448,0
1689041163.5174496,0
1689041163.5674477,2
1689041163.617444,26
1689041163.6674483,60
1689041163.7174475,69
1689041163.750445,58
1689041163.8004472,49
1689041163.8504431,40
1689041163.900447,34
1689041163.9504478,33
1689041164.0004437,31
1689041164.0504467,25
1689041164.100445,19
1689041164.1504426,16
1689041164.200443,14
1689041164.2504475,13
1689041164.3004415,11
1689041164.350447,11
1689041164.4004464,33
1689041164.4504423,69
1689041164.5004463,85
1689041164.550445,77
1689041164.6004462,65
1689041164.6504416,56
1689041164.700446,56
1689041164.7344456,61
1689041164.7844458,60
1689041164.8344438,52
1689041164.8844464,42
1689041164.9344418,36
1689041164.9844408,33
1689041165.034447,32
1689041165.0844462,32
1689041165.134445,48
1689041165.184445,72
1689041165.2344458,75
1689041165.2844455,67
1689041165.3344448,59
1689041165.384441,52
1689041165.448441,48
1689041165.4984457,46
1689041165.548445,40
1689041165.5984442,33
1689041165.6484444,27
1689041165.6984441,21
1689041165.7314446,16
1689041165.7814403,12
1689041165.8314438,6
1689041165.88144,7
1689041165.9314442,33
1689041165.98144,63
1689041166.0314443,66
1689041166.0814435,56
1689041166.1314435,46
1689041166.1814387,39
1689041166.2314398,36
1689041166.2814434,35
1689041166.3314433,31
1689041166.3814433,24
1689041166.4314432,18
1689041166.481443,14
1689041166.531443,13
1689041166.581443,13
1689041166.6314378,13
1689041166.6824384,33
1689041166.7204382,67
1689041166.770439,79
1689041166.820443,71
1689041166.8704438,61
1689041166.9314427,51
1689041166.981438,47
1689041167.0314422,47
1689041167.0814383,42
1689041167.131438,34
1689041167.1814415,27
1689041167.2314417,22
1689041167.2814415,21
1689041167.3314414,21
1689041167.3814423,26
1689041167.4324381,48
1689041167.481437,74
1689041167.5314374,76
1689041167.5814416,69
1689041167.6314409,63
1689041167.6814408,57
1689041167.7204368,54
1689041167.7674406,53
1689041167.8174405,48
1689041167.8674374,42
1689041167.9174411,38
1689041167.9674404,35
1689041168.017441,33
1689041168.06744,31
1689041168.1174355,29
1689041168.1674402,40
1689041168.2174406,59
1689041168.2674358,64
1689041168.31744,58
1689041168.36744,52
1689041168.41744,46
1689041168.4674397,41
1689041168.5174353,38
1689041168.5674396,32
1689041168.6174388,24
1689041168.6674347,18
1689041168.717439,15
1689041168.751439,14
1689041168.801439,14
1689041168.851435,14
1689041168.901439,13
1689041168.9514391,25
1689041169.0014386,55
1689041169.0514386,70
1689041169.10144,62
1689041169.151438,52
1689041169.2014384,45
1689041169.2514384,41
1689041169.301438,42
1689041169.3514402,40
1689041169.401438,33
1689041169.4514377,27
1689041169.5014381,23
1689041169.5514405,22
1689041169.6014342,21
1689041169.6514335,20
1689041169.7014375,25
1689041169.7344394,50
1689041169.7844381,66
1689041169.8344333,68
1689041169.8844376,58
1689041169.9344337,49
1689041169.984437,42
1689041170.0344374,42
1689041170.0844328,43
1689041170.1344366,39
1689041170.1844332,31
1689041170.2344325,25
1689041170.2844365,22
1689041170.3344364,20
1689041170.3844361,19
1689041170.4344363,21
1689041170.4844368,40
1689041170.5344312,65
1689041170.5844312,68
1689041170.634432,59
1689041170.684492,49
1689041170.7204323,42
1689041170.770431,41
1689041170.8204362,40
1689041170.870436,38
1689041170.920432,30
1689041170.9704313,23
1689041171.0204356,18
1689041171.0704353,15
1689041171.1204352,14
1689041171.1704361,14
1689041171.2204309,25
1689041171.270431,53
1689041171.3204353,69
1689041171.3704307,63
1689041171.4204347,53
1689041171.470435,45
1689041171.5204303,43
1689041171.5704372,46
1689041171.6204352,45
1689041171.6704352,40
1689041171.7204351,35
1689041171.7704349,31
1689041171.8204339,28
1689041171.870434,25
1689041171.9314306,25
1689041171.9834304,47
1689041172.0314338,67
1689041172.0814338,67
1689041172.1314294,57
1689041172.1814334,47
1689041172.2314367,39
1689041172.281433,35
1689041172.3314295,34
1689041172.3814332,29
1689041172.431429,22
1689041172.4814332,16
1689041172.5314329,12
1689041172.5814326,10
1689041172.6314332,10
1689041172.683429,25
1689041172.7204337,55
1689041172.7654288,70
1689041172.8154328,66
1689041172.8654323,55
1689041172.9154322,44
1689041172.965428,39
1689041173.015429,36
1689041173.0654285,35
1689041173.115432,30
1689041173.1654317,24
1689041173.2154317,20
1689041173.265432,19
1689041173.3154273,23
1689041173.3654318,46
1689041173.4154315,76
1689041173.4654272,84
1689041173.5154314,76
1689041173.5654273,66
1689041173.6154313,59
1689041173.6654308,56
1689041173.715475,55
1689041173.7534306,49
1689041173.801431,43
1689041173.851431,37
1689041173.9014308,34
1689041173.9514303,33
1689041174.0014305,32
1689041174.0514302,38
1689041174.1014261,59
1689041174.1514304,75
1689041174.2014263,70
1689041174.2514298,62
1689041174.30143,55
1689041174.3514297,51
1689041174.4014306,49
1689041174.4654307,45
1689041174.5154297,40
1689041174.5654256,34
1689041174.6154296,29
1689041174.6654303,26
1689041174.7154315,25
1689041174.7484298,23
1689041174.7984288,22
1689041174.8484287,33
1689041174.8984246,57
1689041174.9484289,66
1689041174.9984288,58
1689041175.0484245,50
1689041175.0984287,45
1689041175.1484294,44
1689041175.1984284,44
1689041175.2484283,40
1689041175.2984278,35
1689041175.348428,30
1689041175.3984296,27
1689041175.4484277,26
1689041175.4984276,26
1689041175.5484288,25
1689041175.598428,24
1689041175.648424,25
1689041175.6984246,43
1689041175.7324288,61
1689041175.7824273,61
1689041175.8324237,53
1689041175.8824275,45
1689041175.933427,42
1689041175.9819136,42
1689041176.0319118,43
1689041176.0819118,40
1689041176.1319077,36
1689041176.1819117,32
1689041176.2319148,30
1689041176.2819078,30
1689041176.3319113,30
1689041176.3819146,29
1689041176.4319112,28
1689041176.4819112,28
1689041176.5319118,40
1689041176.5829117,55
1689041176.632911,54
1689041176.6819081,52
1689041176.7209072,40
1689041176.7649117,39
1689041176.8149116,40
1689041176.8649106,42
1689041176.9156365,38
1689041176.965637,29
1689041177.0152848,23
1689041177.0652888,19
1689041177.1152842,17
1689041177.1652882,15
1689041177.2152884,13
1689041177.265288,9
1689041177.3152843,7
1689041177.365288,30
1689041177.415284,59
1689041177.465288,55
1689041177.5152838,34
1689041177.5652876,14
1689041177.6152878,10
1689041177.6652875,21
1689041177.7152874,28
1689041177.7492836,19
1689041177.7992873,10
1689041177.8492832,0
1689041177.8992872,0
1689041177.9492838,0
1689041177.9992821,0
1689041178.049287,0
1689041178.0992823,0
1689041178.149283,0
1689041178.1992865,40
1689041178.2492828,64
1689041178.2992866,49
1689041178.349283,26
1689041178.3992863,11
1689041178.4492865,11
1689041178.4992821,22
1689041178.549282,27
1689041178.599286,15
1689041178.6492817,3
1689041178.699282,0
1689041178.732286,0
1689041178.7822855,0
1689041178.8322854,0
1689041178.8842862,21
1689041178.9322855,69
1689041178.9822857,82
1689041179.0322852,62
1689041179.082281,41
1689041179.132285,30
1689041179.1822855,32
1689041179.2322848,37
1689041179.2822812,34
1689041179.3322852,24
1689041179.3822854,15
1689041179.4322805,10
1689041179.4822805,8
1689041179.5322814,11
1689041179.5842848,43
1689041179.6322842,81
1689041179.6822805,83
1689041179.7212808,67
1689041179.768284,56
1689041179.8182802,42
1689041179.868284,39
1689041179.9182847,40
1689041179.9682837,38
1689041180.0182793,29
1689041180.0682833,21
1689041180.1182835,17
1689041180.1682835,15
1689041180.2182794,28
1689041180.2682834,62
1689041180.318283,83
1689041180.3682828,76
1689041180.418279,65
1689041180.468283,54
1689041180.518283,47
1689041180.5682838,45
1689041180.6182826,43
1689041180.6682777,37
1689041180.7182827,31
1689041180.7562783,27
1689041180.8062775,24
1689041180.858278,23
1689041180.9082787,42
1689041180.9652822,78
1689041181.0152824,83
1689041181.0652819,75
1689041181.1152785,65
1689041181.1652787,55
1689041181.215278,52
1689041181.2652814,53
1689041181.3152907,49
1689041181.3652813,43
1689041181.4152822,39
1689041181.4652812,36
1689041181.5152774,34
1689041181.5652814,39
1689041181.615281,63
1689041181.665281,84
1689041181.7152803,83
1689041181.7682757,72
1689041181.818281,67
1689041181.8682806,60
1689041181.9182804,58
1689041181.9682806,55
1689041182.0182762,48
1689041182.0682766,41
1689041182.1180916,37
1689041182.1680956,36
1689041182.2180915,36
1689041182.2680955,35
1689041182.3180952,40
1689041182.368095,67
1689041182.4180963,88
1689041182.468095,85
1689041182.5180948,77
1689041182.5690951,70
1689041182.6180909,64
1689041182.6680906,64
1689041182.7180946,62
1689041182.7560945,56
1689041182.8050947,51
1689041182.8550901,45
1689041182.9050946,41
1689041182.963094,39
1689041183.0130944,37
1689041183.06309,35
1689041183.1130903,32
1689041183.1630943,28
1689041183.213094,37
1689041183.2630942,62
1689041183.31309,77
1689041183.3630936,71
1689041183.4130936,63
1689041183.4630895,57
1689041183.5130885,53
1689041183.5630891,51
1689041183.6130898,47
1689041183.6630895,41
1689041183.7130928,35
1689041183.7460887,32
1689041183.796093,30
1689041183.8460927,28
1689041183.8960886,24
1689041183.949093,21
1689041183.9990926,18
1689041184.0490923,16
1689041184.0990925,15
1689041184.1490927,24
1689041184.1990883,51
1689041184.249092,71
1689041184.2990878,66
1689041184.349087,58
1689041184.3990917,52
1689041184.4490917,49
1689041184.4990916,48
1689041184.5490935,45
1689041184.5990884,39
1689041184.6490912,33
1689041184.6990926,31
1689041184.7320874,30
1689041184.782091,30
1689041184.832091,28
1689041184.8820918,25
1689041184.932091,22
1689041184.982091,19
1689041185.0320873,17
1689041185.0820909,15
1689041185.1340904,32
1689041185.1820905,63
1689041185.2320905,73
1689041185.2820904,64
1689041185.3320868,56
1689041185.3820865,50
1689041185.4321077,48
1689041185.482112,47
1689041185.5331125,43
1689041185.5831075,36
1689041185.633107,29
1689041185.6831105,24
1689041185.7211075,20
1689041185.7661073,18
1689041185.8161116,14
1689041185.866653,9
1689041185.916657,2
1689041185.966657,0
1689041186.016653,0
1689041186.0666523,0
1689041186.1166523,5
1689041186.1666567,54
1689041186.2166562,65
1689041186.266652,51
1689041186.3166564,36
1689041186.366652,27
1689041186.416657,29
1689041186.4666564,33
1689041186.5166557,26
1689041186.566657,12
1689041186.6166556,0
1689041186.6666517,0
1689041186.716651,0
1689041186.7496512,0
1689041186.7996554,0
1689041186.8496556,0
1689041186.8996556,0
1689041186.9496503,0
1689041186.999651,18
1689041187.0496516,62
1689041187.0996509,65
1689041187.1496549,45
1689041187.1996505,27
1689041187.2496545,19
1689041187.299651,23
1689041187.3496552,24
1689041187.3996503,15
1689041187.4636495,0
1689041187.5136502,0
1689041187.56365,0
1689041187.613655,0
1689041187.663654,0
1689041187.7136538,0
1689041187.747654,47
1689041187.797654,94
1689041187.8476496,125
1689041187.8976488,73
1689041187.9496534,60
1689041187.9996533,49
1689041188.0496533,44
1689041188.099649,43
1689041188.149653,40
1689041188.1996493,36
1689041188.2496536,30
1689041188.2996483,26
1689041188.3496547,22
1689041188.399648,20
1689041188.4496524,20
1689041188.4996533,35
1689041188.5496526,65
1689041188.5996528,79
1689041188.6496522,71
1689041188.6996477,58
1689041188.733653,47
1689041188.7836473,41
1689041188.8331404,38
1689041188.88314,36
1689041188.9331434,31
1689041188.9831364,25
1689041189.033136,19
1689041189.08314,14
1689041189.1331356,10
1689041189.1831362,9
1689041189.2351356,24
1689041189.2841396,55
1689041189.3331354,72
1689041189.3831346,67
1689041189.4611351,51
1689041189.5111353,44
1689041189.5611348,42
1689041189.6111395,42
1689041189.6611392,40
1689041189.7111394,36
1689041189.7441387,31
1689041189.7941349,28
1689041189.8441384,25
1689041189.8941388,27
1689041189.947139,51
1689041189.9971383,81
1689041190.0471382,85
1689041190.0971382,76
1689041190.1471384,68
1689041190.197138,61
1689041190.2471337,57
1689041190.297135,53
1689041190.3471336,47
1689041190.397138,39
1689041190.4471378,30
1689041190.4971375,25
1689041190.5471332,21
1689041190.5971339,19
1689041190.6501336,29
1689041190.7001374,57
1689041190.7331374,75
1689041190.7881374,72
1689041190.8381324,65
1689041190.888133,59
1689041190.9501238,53
1689041191.0000103,50
1689041191.050009,47
1689041191.1000133,41
1689041191.1500142,33
1689041191.2000089,24
1689041191.2500129,19
1689041191.300009,17
1689041191.350013,15
1689041191.4000127,14
1689041191.4640083,33
1689041191.5140085,66
1689041191.5640125,78
1689041191.6140125,69
1689041191.6640136,60
1689041191.7140124,52
1689041191.7470126,48
1689041191.7970078,47
1689041191.847008,44
1689041191.8970125,38
1689041191.950008,30
1689041192.0000117,24
1689041192.0500116,20
1689041192.1000068,18
1689041192.150012,16
1689041192.2000077,14
1689041192.2500076,14
1689041192.300011,36
1689041192.3500066,70
1689041192.4280062,80
1689041192.477011,61
1689041192.527011,51
1689041192.5780108,45
1689041192.628007,44
1689041192.678007,41
1689041192.7220063,35
1689041192.7610059,29
1689041192.811011,21
1689041192.8610103,15
1689041192.9110062,10
1689041192.96601,8
1689041193.0160055,8
1689041193.06601,8
1689041193.116006,14
1689041193.166005,62
1689041193.2160056,81
1689041193.266005,72
1689041193.3160052,54
1689041193.3660047,40
1689041193.4310048,32
1689041193.4811666,30
1689041193.5317073,27
1689041193.5817099,21
1689041193.6307068,14
1689041193.6807072,9
1689041193.7227077,6
1689041193.764715,4
1689041193.8137064,3
1689041193.8647065,3
1689041193.9147072,14
1689041193.9677062,42
1689041194.0177069,62
1689041194.067706,57
1689041194.1177065,44
1689041194.1677058,34
1689041194.217707,32
1689041194.267707,33
1689041194.3177056,32
1689041194.3677056,28
1689041194.4177065,22
1689041194.467707,17
1689041194.5177054,14
1689041194.5677054,11
1689041194.6177056,13
1689041194.6677055,30
1689041194.717705,59
1689041194.7507052,66
1689041194.800705,63
1689041194.8507051,52
1689041194.9007053,43
1689041194.9507048,39
1689041195.0007057,38
1689041195.0507166,36
1689041195.100705,31
1689041195.1507044,25
1689041195.2007043,20
1689041195.2507043,17
1689041195.3007042,15
1689041195.3507044,26
1689041195.400704,53
1689041195.4497042,73
1689041195.5007043,69
1689041195.5507045,58
1689041195.6007054,47
1689041195.6507175,41
1689041195.7007031,40
1689041195.7337034,38
1689041195.7837036,35
1689041195.8337033,29
1689041195.8837032,24
1689041195.9347036,19
1689041195.9837031,17
1689041196.0357032,25
1689041196.0857034,51
1689041196.1357028,71
1689041196.1827025,69
1689041196.2337341,58
1689041196.2827036,48
1689041196.3337033,42
1689041196.3837023,40
1689041196.4477022,39
1689041196.4977033,33
1689041196.5477023,28
1689041196.5972557,23
1689041196.6465802,20
1689041196.6974642,24
1689041196.731704,47
1689041196.781754,68
1689041196.8307545,82
1689041196.8817542,74
1689041196.9327536,61
1689041196.9827533,52
1689041197.0327535,48
1689041197.0827534,47
1689041197.1327534,43
1689041197.1827528,40
1689041197.2336714,34
1689041197.2831206,30
1689041197.3331256,27
1689041197.3851254,32
1689041197.447125,62
1689041197.4971201,96
1689041197.5471246,88
1689041197.597121,73
1689041197.6471243,60
1689041197.6971247,54
1689041197.7311203,50
1689041197.7811205,47
1689041197.8311198,40
1689041197.881124,33
1689041197.9331243,27
1689041197.983119,23
1689041198.0331247,21
1689041198.0851197,25
1689041198.135119,53
1689041198.1851194,84
1689041198.2341194,85
1689041198.2841234,70
1689041198.3341238,56
1689041198.3841233,48
1689041198.434119,45
1689041198.4841185,43
1689041198.5341237,37
1689041198.5841231,30
1689041198.6341186,24
1689041198.6841187,23
1689041198.7221186,24
1689041198.7671227,25
1689041198.8171222,25
1689041198.8671224,47
1689041198.9171178,78
1689041198.9671187,84
1689041199.017118,72
1689041199.0671227,58
1689041199.1171217,49
1689041199.1671178,47
1689041199.2171125,47
1689041199.267127,42
1689041199.3171268,35
1689041199.3671267,28
1689041199.4171312,22
1689041199.4671268,19
1689041199.5171266,16
1689041199.5671308,15
1689041199.6171305,24
1689041199.6671257,59
1689041199.717126,79
1689041199.7501266,73
1689041199.8001263,63
1689041199.8501303,48
1689041199.900126,41
1689041199.9501305,40
1689041200.0001316,40
1689041200.0501258,35
1689041200.100126,28
1689041200.1501248,21
1689041200.200126,16
1689041200.2501295,13
1689041200.3001297,11
1689041200.3501275,10
1689041200.4001296,19
1689041200.4501243,49
1689041200.500131,73
1689041200.550129,67
1689041200.600125,51
1689041200.6501248,39
1689041200.7001307,34
1689041200.7341287,34
1689041200.7841284,33
1689041200.8341289,28
1689041200.8841288,21
1689041200.9351237,15
1689041200.9841242,11
1689041201.0346935,7
1689041201.0846932,3
1689041201.1336944,1
1689041201.1846936,10
1689041201.2356927,37
1689041201.2846935,60
1689041201.3346922,59
1689041201.384694,48
1689041201.434692,38
1689041201.4846916,34
1689041201.534694,34
1689041201.5846922,30
1689041201.6346922,24
1689041201.684693,18
1689041201.7236915,12
1689041201.7676923,10
1689041201.817691,6
1689041201.8676934,3
1689041201.917691,5
1689041201.967691,24
1689041202.017691,38
1689041202.067691,42
1689041202.1176906,39
1689041202.1669748,32
1689041202.2174358,28
1689041202.267431,28
1689041202.317435,29
1689041202.3674352,28
1689041202.4174352,27
1689041202.4674306,24
1689041202.5174353,21
1689041202.5674317,19
1689041202.617435,23
1689041202.6674314,44
1689041202.7174313,67
1689041202.7514298,74
1689041202.801412,71
1689041202.8515553,62
1689041202.9015543,54
1689041202.9515548,50
1689041203.0015552,47
1689041203.0515537,43
1689041203.1015584,38
1689041203.1515586,32
1689041203.2015586,28
1689041203.251558,26
1689041203.301554,29
1689041203.3515537,48
1689041203.4010346,70
1689041203.4510536,74
1689041203.5010543,64
1689041203.551534,57
1689041203.601562,50
1689041203.651566,47
1689041203.7015615,46
1689041203.7342935,41
1689041203.7898428,37
1689041203.8399642,33
1689041203.889964,30
1689041203.9509683,29
1689041204.0009632,45
1689041204.0509636,75
1689041204.100963,89
1689041204.1509678,80
1689041204.2009635,68
1689041204.2509677,58
1689041204.3009624,54
1689041204.3514378,52
1689041204.4017515,47
1689041204.4507513,41
1689041204.500751,36
1689041204.5507505,32
1689041204.6014273,30
1689041204.6509206,39
1689041204.7009203,66
1689041204.7349205,91
1689041204.7839205,91
1689041204.8349197,80
1689041204.88392,67
1689041204.93392,59
1689041204.9839199,56
1689041205.03392,54
1689041205.0840123,48
1689041205.1347048,41
1689041205.1837907,36
1689041205.2338846,31
1689041205.2838848,29
1689041205.3338845,27
1689041205.3848839,40
1689041205.4354217,68
1689041205.4845695,82
1689041205.534564,75
1689041205.5837264,64
1689041205.634601,55
1689041205.6846056,52
1689041205.7236054,50
1689041205.7706008,47
1689041205.8206005,40
1689041205.870602,34
1689041205.920606,30
1689041205.9706004,26
1689041206.0206065,23
1689041206.0706053,20
1689041206.1206005,18
1689041206.170601,28
1689041206.2206051,58
1689041206.2706058,78
1689041206.3206046,74
1689041206.3706048,65
1689041206.420605,57
1689041206.4705997,52
1689041206.520605,51
1689041206.5705998,46
1689041206.6206045,40
1689041206.6705995,33
1689041206.7205987,28
1689041206.7540257,25
1689041206.8039126,24
1689041206.853913,22
1689041206.9039125,21
1689041206.9539127,19
1689041207.003912,19
1689041207.0539126,38
1689041207.1039119,69
1689041207.1539125,80
1689041207.203912,72
1689041207.253912,62
1689041207.3039124,55
1689041207.3539124,52
1689041207.4039118,50
1689041207.453912,45
1689041207.5039117,38
1689041207.553912,31
1689041207.6039116,25
1689041207.6539118,22
1689041207.7039115,20
1689041207.7369115,19
1689041207.786911,18
1689041207.8369114,16
1689041207.8869104,26
1689041207.9385462,54
1689041207.9875615,73
1689041208.036781,66
1689041208.0875876,53
1689041208.1371439,42
1689041208.1874905,39
1689041208.2374947,38
1689041208.2874904,34
1689041208.3374896,26
1689041208.3874903,17
1689041208.4374897,9
1689041208.4874897,3
1689041208.53749,0
1689041208.5874903,0
1689041208.637489,0
1689041208.6867657,2
1689041208.723718,27
1689041208.7700667,51
1689041208.8200624,71
1689041208.8700616,62
1689041208.919796,46
1689041208.9704561,34
1689041209.020456,28
1689041209.0704563,28
1689041209.1204555,27
1689041209.1697395,22
1689041209.219799,16
1689041209.269799,11
1689041209.3207994,8
1689041209.370799,6
1689041209.4207995,5
1689041209.4707987,7
1689041209.5214825,26
1689041209.571703,59
1689041209.6210558,75
1689041209.6710606,68
1689041209.7210605,54
1689041209.7540562,44
1689041209.8040607,40
1689041209.8540602,40
1689041209.9040596,38
1689041209.954056,32
1689041210.0047042,24
1689041210.0541596,17
1689041210.1046288,12
1689041210.1546311,9
1689041210.2046356,10
1689041210.254635,28
1689041210.3046298,59
1689041210.3546352,76
1689041210.4046347,70
1689041210.4546301,58
1689041210.5046353,48
1689041210.5546305,42
1689041210.6046295,41
1689041210.654635,39
1689041210.7046342,33
1689041210.7376344,27
1689041210.7876298,23
1689041210.8376343,19
1689041210.8876293,16
1689041210.9396336,21
1689041210.9876297,49
1689041211.0376291,83
1689041211.0876293,90
1689041211.1376336,79
1689041211.1876285,66
1689041211.2376332,56
1689041211.2876287,50
1689041211.3376281,46
1689041211.3876283,40
1689041211.4376287,33
1689041211.4876285,27
1689041211.5376291,23
1689041211.5876284,21
1689041211.6376326,25
1689041211.6876278,55
1689041211.7236278,90
1689041211.770933,95
1689041211.8207822,84
1689041211.8707812,70
1689041211.9207814,58
1689041211.9707813,50
1689041212.0207849,46
1689041212.0707817,42
1689041212.120781,36
1689041212.1707811,28
1689041212.220781,23
1689041212.270781,20
1689041212.3207808,19
1689041212.3707805,35
1689041212.4207802,70
1689041212.4707806,90
1689041212.5207808,82
1689041212.5707805,69
1689041212.6207798,59
1689041212.6707804,52
1689041212.7207804,50
1689041212.7587798,45
1689041212.8067796,40
1689041212.8567798,32
1689041212.90678,24
1689041212.9677799,17
1689041213.0177789,13
1689041213.0684018,17
1689041213.118606,45
1689041213.1686103,76
1689041213.218606,76
1689041213.2686102,64
1689041213.3186057,52
1689041213.3686059,44
1689041213.4186058,41
1689041213.4686103,40
1689041213.5186055,38
1689041213.5686102,31
1689041213.618606,24
1689041213.6686103,20
1689041213.7186058,18
1689041213.751605,17
1689041213.8016045,16
1689041213.851609,19
1689041213.9046097,45
1689041213.9546049,80
1689041214.004609,84
1689041214.0546043,70
1689041214.1046047,55
1689041214.1546037,46
1689041214.2046096,42
1689041214.2546039,40
1689041214.3046098,36
1689041214.354604,29
1689041214.4046085,22
1689041214.4546037,19
1689041214.5046086,17
1689041214.5546038,15
1689041214.6046033,14
1689041214.6543388,15
1689041214.704116,38
1689041214.7381158,74
1689041214.7881763,86
1689041214.8381157,78
1689041214.8881116,61
1689041214.9381113,47
1689041214.988118,40
1689041215.0381105,40
1689041215.0881133,37
1689041215.1384335,31
1689041215.1887367,24
1689041215.237737,18
1689041215.287737,14
1689041215.3377373,12
1689041215.3877366,10
1689041215.4377375,9
1689041215.4877365,10
1689041215.5377362,33
1689041215.5877366,67
1689041215.6377368,77
1689041215.6877365,63
1689041215.7237356,48
1689041215.7715142,40
1689041215.8207183,35
1689041215.8707182,35
1689041215.9207182,33
1689041215.970718,26
1689041216.0207176,19
1689041216.0707178,13
1689041216.1217186,8
1689041216.170718,5
1689041216.220717,2
1689041216.2706914,3
1689041216.3211312,20
1689041216.3711276,57
1689041216.4211257,70
1689041216.4707446,63
1689041216.5207314,48
1689041216.5707319,38
1689041216.6207314,34
1689041216.6707318,35
1689041216.7217312,34
1689041216.753731,29
1689041216.8037307,26
1689041216.8537302,22
1689041216.9047308,18
1689041216.9537308,13
1689041217.0037313,9
1689041217.05373,17
1689041217.103731,45
1689041217.1537309,71
1689041217.20373,74
1689041217.2537303,65
1689041217.3041048,54
1689041217.3541708,47
1689041217.4044898,44
1689041217.4544835,40
1689041217.5044887,35
1689041217.5544887,28
1689041217.6044836,23
1689041217.6544883,20
1689041217.7044847,18
1689041217.7384837,24
1689041217.7879496,39
1689041217.8379455,71
1689041217.8879454,85
1689041217.9379454,76
1689041217.9879453,62
1689041218.0378451,51
1689041218.0878453,45
1689041218.1378455,41
1689041218.1878452,34
1689041218.237734,26
1689041218.2877343,19
1689041218.337734,16
1689041218.387734,15
1689041218.4377337,21
1689041218.4877338,48
1689041218.537733,81
1689041218.5877335,88
1689041218.6377332,74
1689041218.6880875,58
1689041218.7242668,45
1689041218.7712617,41
1689041218.8212655,39
1689041218.8712628,36
1689041218.921266,31
1689041218.971261,26
1689041219.0212653,22
1689041219.071261,20
1689041219.1212652,36
1689041219.1712704,71
1689041219.220909,92
1689041219.270909,88
1689041219.320963,75
1689041219.3713124,62
1689041219.4213123,55
1689041219.4713118,52
1689041219.5213163,47
1689041219.5713162,40
1689041219.6213114,34
1689041219.6713111,28
1689041219.7213116,25
1689041219.7553158,25
1689041219.8053114,37
1689041219.8553164,69
1689041219.9053156,88
1689041219.9553154,80
1689041220.0053108,68
1689041220.055311,56
1689041220.1053107,49
1689041220.1553152,46
1689041220.2053149,41
1689041220.2551029,36
1689041220.3054173,29
1689041220.355421,23
1689041220.4054165,19
1689041220.4554214,16
1689041220.5054169,27
1689041220.555421,58
1689041220.6054168,78
1689041220.655422,72
1689041220.705416,59
1689041220.7384157,48
1689041220.788422,43
1689041220.8384159,40
1689041220.8884156,38
1689041220.937762,34
1689041220.9882784,29
1689041221.038272,23
1689041221.0886068,18
1689041221.138033,14
1689041221.188621,12
1689041221.2386165,22
1689041221.2886221,53
1689041221.3386168,80
1689041221.388616,77
1689041221.4386165,64
1689041221.4886208,53
1689041221.5386205,46
1689041221.5886161,42
1689041221.6386158,39
1689041221.688616,32
1689041221.723985,23
1689041221.7879713,14
1689041221.8382742,8
1689041221.8885322,4
1689041221.938405,2
1689041221.9880776,14
1689041222.0380728,49
1689041222.088078,75
1689041222.138078,72
1689041222.188073,60
1689041222.2380772,51
1689041222.2880726,44
1689041222.3380723,42
