timestamp,bvp
1689043066.9322717,27
1689043066.9822712,47
1689043067.0322714,73
1689043067.0822752,76
1689043067.1322749,67
1689043067.1820347,61
1689043067.2322936,56
1689043067.2822907,53
1689043067.3322933,51
1689043067.3822937,47
1689043067.4322891,40
1689043067.482289,33
1689043067.532289,29
1689043067.582288,28
1689043067.632288,27
1689043067.6822898,26
1689043067.7322931,23
1689043067.7822928,21
1689043067.832288,19
1689043067.8682926,28
1689043067.916293,43
1689043067.9662888,68
1689043068.0162907,70
1689043068.0662923,61
1689043068.116288,55
1689043068.1662872,51
1689043068.2162926,49
1689043068.2662883,48
1689043068.316287,46
1689043068.3662932,40
1689043068.4162886,33
1689043068.466293,29
1689043068.5162876,28
1689043068.566293,27
1689043068.6162918,26
1689043068.6662912,24
1689043068.7162864,22
1689043068.7662861,20
1689043068.816288,22
1689043068.866291,42
1689043068.9042873,66
1689043068.9522867,69
1689043069.0022907,60
1689043069.0522873,52
1689043069.113291,48
1689043069.1632855,47
1689043069.2132862,47
1689043069.2632904,42
1689043069.3132875,36
1689043069.3632905,28
1689043069.413286,24
1689043069.4632897,21
1689043069.5132873,20
1689043069.5632849,18
1689043069.6132865,15
1689043069.6632895,12
1689043069.7132864,9
1689043069.7632897,6
1689043069.8132846,23
1689043069.863285,53
1689043069.9012904,65
1689043069.9492893,59
1689043069.999289,47
1689043070.0492892,39
1689043070.0992894,38
1689043070.1492891,40
1689043070.19929,41
1689043070.2492855,36
1689043070.2992883,28
1689043070.3492846,22
1689043070.3990147,20
1689043070.4490101,21
1689043070.499014,23
1689043070.5490088,24
1689043070.5990152,23
1689043070.6490147,30
1689043070.6990135,52
1689043070.749013,67
1689043070.7990131,60
1689043070.8490105,47
1689043070.8820107,40
1689043070.938013,40
1689043070.9880087,48
1689043071.038013,50
1689043071.0960083,44
1689043071.1460075,33
1689043071.1960123,26
1689043071.2460115,23
1689043071.2960129,22
1689043071.346009,23
1689043071.396436,22
1689043071.446436,20
1689043071.4964316,32
1689043071.5464356,62
1689043071.5964305,80
1689043071.646433,73
1689043071.6964326,63
1689043071.7464325,57
1689043071.796436,55
1689043071.8464355,55
1689043071.8804348,53
1689043071.9304354,48
1689043071.9804351,40
1689043072.030435,32
1689043072.0804298,28
1689043072.1304345,26
1689043072.1804311,27
1689043072.2304301,26
1689043072.2804346,24
1689043072.3304298,21
1689043072.3824344,23
1689043072.431434,48
1689043072.481431,77
1689043072.5304346,79
1689043072.5804298,68
1689043072.6304297,59
1689043072.6804335,55
1689043072.730429,53
1689043072.7804298,53
1689043072.8304338,49
1689043072.8694284,40
1689043072.9128604,35
1689043072.9629848,29
1689043073.0129797,26
1689043073.0629847,25
1689043073.1129792,25
1689043073.1629846,23
1689043073.2129846,21
1689043073.2629843,18
1689043073.3129797,21
1689043073.3629787,47
1689043073.4129808,76
1689043073.4629838,76
1689043073.5129795,64
1689043073.562984,55
1689043073.6129837,50
1689043073.6629784,51
1689043073.7129843,51
1689043073.7629786,46
1689043073.8129787,37
1689043073.8629835,29
1689043073.8969781,24
1689043073.9469829,23
1689043073.9969828,23
1689043074.0469797,24
1689043074.0969825,22
1689043074.1469796,20
1689043074.196978,17
1689043074.246982,21
1689043074.2969825,49
1689043074.346978,76
1689043074.3969822,75
1689043074.4469893,62
1689043074.496982,52
1689043074.5469792,49
1689043074.596977,50
1689043074.6469843,51
1689043074.6969771,45
1689043074.7469814,36
1689043074.7969763,27
1689043074.846979,21
1689043074.8799772,20
1689043074.9359765,20
1689043074.9859762,20
1689043075.0359764,17
1689043075.0969825,13
1689043075.146976,12
1689043075.1969762,37
1689043075.246978,70
1689043075.2969804,74
1689043075.3469768,60
1689043075.3969758,47
1689043075.4469762,41
1689043075.4969773,44
1689043075.5469813,49
1689043075.596975,45
1689043075.6469762,34
1689043075.696976,23
1689043075.7469757,18
1689043075.7969801,18
1689043075.8469796,21
1689043075.8799798,22
1689043075.9299817,21
1689043075.9799793,18
1689043076.0309796,27
1689043076.0799754,55
1689043076.1299791,72
1689043076.1799824,65
1689043076.2299788,49
1689043076.2799819,37
1689043076.3299804,39
1689043076.379979,48
1689043076.4299788,51
1689043076.4796612,42
1689043076.5296602,33
1689043076.5796623,27
1689043076.6296647,25
1689043076.6796646,28
1689043076.7296612,30
1689043076.7796648,30
1689043076.8306656,42
1689043076.868666,69
1689043076.9126616,79
1689043076.9626644,73
1689043077.0126603,59
1689043077.06266,49
1689043077.1126652,47
1689043077.1626642,51
1689043077.2136593,51
1689043077.262661,43
1689043077.3126607,34
1689043077.3646593,27
1689043077.4136593,25
1689043077.4636595,25
1689043077.5142603,26
1689043077.5642645,26
1689043077.614261,25
1689043077.6642597,25
1689043077.7142613,48
1689043077.7642648,80
1689043077.814264,86
1689043077.86426,74
1689043077.8972657,65
1689043077.9472637,62
1689043077.9972641,58
1689043078.0472612,56
1689043078.0972633,53
1689043078.147261,46
1689043078.1971521,38
1689043078.2474923,32
1689043078.2975795,29
1689043078.347584,28
1689043078.397584,28
1689043078.4475808,26
1689043078.4965842,24
1689043078.5475812,22
1689043078.5975835,24
1689043078.6475809,46
1689043078.697581,75
1689043078.7470245,80
1689043078.797024,70
1689043078.8470216,63
1689043078.880021,59
1689043078.9296827,57
1689043078.9796789,56
1689043079.0296795,52
1689043079.0796826,44
1689043079.1296833,37
1689043079.1799915,32
1689043079.2303216,29
1689043079.2803307,29
1689043079.3303258,28
1689043079.3803213,26
1689043079.4303255,23
1689043079.479571,20
1689043079.5305705,20
1689043079.5825725,39
1689043079.6305752,68
1689043079.6795707,76
1689043079.73057,67
1689043079.7795713,60
1689043079.83057,55
1689043079.8695703,53
1689043079.9145696,53
1689043079.964574,51
1689043080.0145705,45
1689043080.0645692,39
1689043080.11457,35
1689043080.1645694,33
1689043080.2145693,32
1689043080.2645738,31
1689043080.3145738,28
1689043080.36457,25
1689043080.4145691,22
1689043080.464233,21
1689043080.5142303,28
1689043080.5642326,54
1689043080.6142285,74
1689043080.66423,69
1689043080.7142327,58
1689043080.7642329,52
1689043080.8142326,49
1689043080.8642328,49
1689043080.897232,47
1689043080.947228,43
1689043080.997232,36
1689043081.0472279,30
1689043081.0968032,27
1689043081.146802,26
1689043081.1968021,25
1689043081.246799,25
1689043081.2968023,23
1689043081.3477988,20
1689043081.3968017,18
1689043081.4467976,23
1689043081.4973638,45
1689043081.5473635,65
1689043081.5973644,62
1689043081.6473594,52
1689043081.697359,45
1689043081.7473593,42
1689043081.797363,43
1689043081.847359,43
1689043081.881364,39
1689043081.9313629,34
1689043081.9813626,27
1689043082.031359,22
1689043082.0809507,21
1689043082.1309493,20
1689043082.1809494,19
1689043082.2309484,17
1689043082.2809494,15
1689043082.3309534,12
1689043082.3819532,26
1689043082.4309528,52
1689043082.4809487,61
1689043082.5309534,51
1689043082.5809531,42
1689043082.6309526,38
1689043082.6809485,36
1689043082.7309475,38
1689043082.780953,37
1689043082.8309522,30
1689043082.8699522,22
1689043082.9199529,19
1689043082.969952,15
1689043083.019947,16
1689043083.0809476,17
1689043083.1309516,16
1689043083.1809468,11
1689043083.2346013,22
1689043083.2829828,49
1689043083.3329856,61
1689043083.3829858,52
1689043083.4329858,41
1689043083.4829857,37
1689043083.532986,38
1689043083.5829825,43
1689043083.632985,42
1689043083.6829827,35
1689043083.732985,26
1689043083.7829812,21
1689043083.8329852,21
1689043083.8699837,22
1689043083.9169807,22
1689043083.966986,26
1689043084.0169814,44
1689043084.0669847,62
1689043084.1169808,59
1689043084.1669846,48
1689043084.2169805,40
1689043084.2669845,40
1689043084.3169794,45
1689043084.366984,46
1689043084.4169805,40
1689043084.4669838,31
1689043084.516986,24
1689043084.56698,22
1689043084.616985,23
1689043084.6669836,24
1689043084.7169795,34
1689043084.7669835,56
1689043084.8169808,68
1689043084.8669832,61
1689043084.8999834,52
1689043084.949979,48
1689043084.999983,46
1689043085.049979,48
1689043085.0999827,48
1689043085.1499834,42
1689043085.1999834,35
1689043085.2499785,29
1689043085.2999825,27
1689043085.3499784,27
1689043085.399983,29
1689043085.449978,44
1689043085.4999776,66
1689043085.579193,70
1689043085.6281955,58
1689043085.678189,53
1689043085.7281933,50
1689043085.7791908,50
1689043085.8301928,48
1689043085.8701906,41
1689043085.9111888,37
1689043085.9611905,31
1689043086.011188,27
1689043086.0611928,27
1689043086.1111882,26
1689043086.161188,27
1689043086.2141883,45
1689043086.2641878,67
1689043086.314192,68
1689043086.364192,61
1689043086.414198,56
1689043086.464192,52
1689043086.5141873,49
1689043086.564192,48
1689043086.6141877,43
1689043086.6641877,37
1689043086.7141867,31
1689043086.7641914,27
1689043086.8161874,25
1689043086.8641915,24
1689043086.8981862,23
1689043086.948187,21
1689043086.9981914,18
1689043087.0481865,16
1689043087.0981905,19
1689043087.1481907,42
1689043087.198186,69
1689043087.248192,70
1689043087.2981918,62
1689043087.348186,58
1689043087.3981907,54
1689043087.4481857,51
1689043087.49919,49
1689043087.54819,44
1689043087.59819,38
1689043087.6481862,32
1689043087.6981895,28
1689043087.7481909,26
1689043087.7981904,25
1689043087.8481855,24
1689043087.881185,21
1689043087.9311857,19
1689043087.9811897,16
1689043088.0311894,14
1689043088.081185,14
1689043088.1321843,27
1689043088.181189,56
1689043088.2311893,74
1689043088.281185,68
1689043088.331184,60
1689043088.3811886,57
1689043088.4311903,53
1689043088.4811845,51
1689043088.5311847,49
1689043088.581184,42
1689043088.6311898,35
1689043088.6811845,29
1689043088.731188,26
1689043088.7811882,25
1689043088.831188,24
1689043088.8701878,22
1689043088.9141831,19
1689043088.9641876,16
1689043089.014184,13
1689043089.0641878,12
1689043089.1141875,12
1689043089.164183,24
1689043089.2141826,61
1689043089.2641873,75
1689043089.3151832,69
1689043089.3651872,60
1689043089.4151874,56
1689043089.4651868,52
1689043089.5151837,51
1689043089.5651867,49
1689043089.6151822,43
1689043089.665187,35
1689043089.7151816,29
1689043089.765186,25
1689043089.8151867,24
1689043089.865186,23
1689043089.8981862,22
1689043089.9481812,20
1689043089.9981859,17
1689043090.0481863,14
1689043090.0981815,12
1689043090.1481817,15
1689043090.1981854,41
1689043090.2481806,73
1689043090.2981858,76
1689043090.3481867,64
1689043090.3981833,56
1689043090.4481854,52
1689043090.4981852,50
1689043090.5481813,51
1689043090.5981805,47
1689043090.6481807,38
1689043090.6981847,29
1689043090.7481806,23
1689043090.7981844,21
1689043090.8481805,21
1689043090.8811805,21
1689043090.93118,20
1689043090.98118,17
1689043091.0311844,13
1689043091.082184,10
1689043091.1311839,8
1689043091.18418,23
1689043091.233184,60
1689043091.281179,83
1689043091.3311841,74
1689043091.3811789,60
1689043091.4311836,51
1689043091.481179,48
1689043091.5311794,50
1689043091.5811253,50
1689043091.630612,42
1689043091.6806839,31
1689043091.7306793,21
1689043091.7806795,16
1689043091.830684,16
1689043091.8696833,17
1689043091.9146793,18
1689043091.9656785,17
1689043092.0146785,14
1689043092.0646827,10
1689043092.1146784,8
1689043092.1646779,36
1689043092.2146785,82
1689043092.2646775,86
1689043092.3146827,71
1689043092.3646822,55
1689043092.4146807,46
1689043092.464682,46
1689043092.514678,52
1689043092.5646822,50
1689043092.614678,39
1689043092.6646783,26
1689043092.7146816,17
1689043092.7646816,13
1689043092.814677,14
1689043092.8646815,16
1689043092.8976781,16
1689043092.9476771,14
1689043092.997677,11
1689043093.0476763,7
1689043093.0976784,20
1689043093.147677,63
1689043093.197681,91
1689043093.247677,80
1689043093.297681,61
1689043093.3476768,46
1689043093.397838,42
1689043093.4480124,49
1689043093.4980164,53
1689043093.5480115,46
1689043093.5980124,37
1689043093.6480114,31
1689043093.6980164,29
1689043093.7480123,28
1689043093.7980177,26
1689043093.8480115,21
1689043093.8820174,16
1689043093.9320152,12
1689043093.9820113,7
1689043094.0320158,8
1689043094.0820105,44
1689043094.1330154,85
1689043094.1820104,85
1689043094.2320151,67
1689043094.2820165,49
1689043094.3320148,40
1689043094.3820124,40
1689043094.43201,46
1689043094.4820106,43
1689043094.5320146,32
1689043094.5820103,19
1689043094.6320143,9
1689043094.682011,3
1689043094.7320144,1
1689043094.78201,0
1689043094.8320138,1
1689043094.8700151,2
1689043094.9150105,1
1689043094.9650102,4
1689043095.015014,51
1689043095.0650141,85
1689043095.1150138,77
1689043095.1650136,53
1689043095.2150092,31
1689043095.2650135,23
1689043095.315009,44
1689043095.3650134,57
1689043095.415009,51
1689043095.4650133,37
1689043095.515013,23
1689043095.5650127,15
1689043095.615008,12
1689043095.6650126,14
1689043095.7150087,16
1689043095.765008,27
1689043095.8150125,71
1689043095.8650122,93
1689043095.8980126,83
1689043095.9480124,69
1689043095.9980123,47
1689043096.0480185,37
1689043096.0980122,46
1689043096.1480155,60
1689043096.1980119,57
1689043096.2480078,42
1689043096.298012,28
1689043096.3480115,19
1689043096.3980076,16
1689043096.4480078,19
1689043096.4980116,22
1689043096.5480115,24
1689043096.598007,52
1689043096.6480114,91
1689043096.698011,95
1689043096.748011,80
1689043096.798006,69
1689043096.8480062,58
1689043096.882006,56
1689043096.9322717,61
1689043096.9819226,61
1689043097.0319223,52
1689043097.0839264,40
1689043097.1319213,30
1689043097.1819222,25
1689043097.2319264,25
1689043097.2819269,26
1689043097.331926,25
1689043097.3839266,28
1689043097.4329226,56
1689043097.4829257,85
1689043097.531927,85
1689043097.5819213,72
1689043097.6319256,64
1689043097.6819215,59
1689043097.7319252,56
1689043097.7819204,56
1689043097.8319254,51
1689043097.870922,41
1689043097.914925,35
1689043097.9649212,28
1689043098.0149202,25
1689043098.06492,25
1689043098.11492,24
1689043098.1649244,23
1689043098.2149248,19
1689043098.2649257,29
1689043098.3149252,64
1689043098.3649242,77
1689043098.41492,70
1689043098.4652133,61
1689043098.5147195,56
1689043098.5647185,52
1689043098.6147244,50
1689043098.6647232,48
1689043098.71472,43
1689043098.7647233,36
1689043098.8147235,30
1689043098.8647287,26
1689043098.8987234,26
1689043098.9487233,25
1689043098.9987228,25
1689043099.0487196,22
1689043099.098723,19
1689043099.1487179,22
1689043099.1987183,48
1689043099.2487183,73
1689043099.2987223,74
1689043099.3487182,67
1689043099.398722,64
1689043099.4487178,61
1689043099.498717,57
1689043099.548722,54
1689043099.5987217,48
1689043099.6487184,40
1689043099.698722,34
1689043099.7487173,30
1689043099.7987213,29
1689043099.8487167,28
1689043099.8817174,27
1689043099.9317172,25
1689043099.9817162,21
1689043100.0317173,18
1689043100.0817163,16
1689043100.131717,16
1689043100.1827166,32
1689043100.2317212,60
1689043100.2817225,72
1689043100.3317158,64
1689043100.3817203,57
1689043100.4317207,54
1689043100.4817162,51
1689043100.5317163,49
1689043100.581716,47
1689043100.6317203,42
1689043100.6817224,36
1689043100.7317202,31
1689043100.781716,28
1689043100.8317149,27
1689043100.8707197,26
1689043100.9147167,25
1689043100.9647193,23
1689043101.01472,20
1689043101.0647206,17
1689043101.1147206,15
1689043101.1647193,15
1689043101.2147155,17
1689043101.264715,44
1689043101.314715,69
1689043101.3647192,69
1689043101.4147146,59
1689043101.4647152,54
1689043101.5147185,52
1689043101.5647142,49
1689043101.6147144,48
1689043101.6647143,45
1689043101.7147136,40
1689043101.764714,33
1689043101.8147154,29
1689043101.8657181,27
1689043101.8987143,26
1689043101.9487135,25
1689043101.9987154,24
1689043102.048715,21
1689043102.0987136,17
1689043102.1487136,13
1689043102.1987183,11
1689043102.248714,10
1689043102.2987173,17
1689043102.3487127,45
1689043102.398714,69
1689043102.4487138,65
1689043102.498717,54
1689043102.5487123,48
1689043102.598712,45
1689043102.6487126,44
1689043102.6997125,44
1689043102.7487168,40
1689043102.7987127,32
1689043102.848713,25
1689043102.881713,21
1689043102.9317162,21
1689043102.9817188,22
1689043103.0317125,23
1689043103.0827184,21
1689043103.131716,17
1689043103.1817157,12
1689043103.2317157,9
1689043103.283713,29
1689043103.3317122,57
1689043103.3817117,62
1689043103.4317112,50
1689043103.481712,38
1689043103.5337257,31
1689043103.5827177,39
1689043103.6317148,47
1689043103.6817112,44
1689043103.7317107,35
1689043103.7817113,25
1689043103.8317149,21
1689043103.8707113,22
1689043103.91615,24
1689043103.965842,26
1689043104.0158453,24
1689043104.0658457,29
1689043104.1158414,51
1689043104.1658452,69
1689043104.2158453,64
1689043104.265845,54
1689043104.3158448,46
1689043104.3658478,44
1689043104.4158413,48
1689043104.46584,48
1689043104.5158405,42
1689043104.5658448,35
1689043104.6158397,29
1689043104.6658404,27
1689043104.7158442,28
1689043104.7658398,29
1689043104.81584,27
1689043104.865844,25
1689043104.8988445,36
1689043104.9488401,51
1689043104.998844,67
1689043105.0498405,61
1689043105.0985782,53
1689043105.148582,49
1689043105.1991284,46
1689043105.2492843,45
1689043105.2992887,45
1689043105.3493714,40
1689043105.399374,35
1689043105.4493692,31
1689043105.4993742,29
1689043105.549369,29
1689043105.59877,28
1689043105.6488407,26
1689043105.6988404,24
1689043105.748836,30
1689043105.7988405,49
1689043105.8488355,60
1689043105.8818412,54
1689043105.9318357,50
1689043105.98184,46
1689043106.0328367,43
1689043106.0818403,42
1689043106.1334558,42
1689043106.1834939,40
1689043106.2334564,36
1689043106.2834554,32
1689043106.3334517,30
1689043106.3834553,29
1689043106.4334526,29
1689043106.4834518,28
1689043106.5334535,26
1689043106.58345,26
1689043106.634455,39
1689043106.6834555,57
1689043106.7334557,59
1689043106.7834547,52
1689043106.83345,48
1689043106.8714547,46
1689043106.9164503,44
1689043106.9664543,43
1689043107.0164495,42
1689043107.0664544,40
1689043107.1164546,36
1689043107.1664503,33
1689043107.21645,31
1689043107.266454,31
1689043107.3164499,30
1689043107.3664544,28
1689043107.4164493,26
1689043107.4664536,24
1689043107.5164537,23
1689043107.566449,34
1689043107.6164534,53
1689043107.666449,59
1689043107.7164488,52
1689043107.766453,48
1689043107.8164492,46
1689043107.866453,44
1689043107.8994482,44
1689043107.9494529,43
1689043107.9994485,40
1689043108.0494487,37
1689043108.099454,33
1689043108.1494527,31
1689043108.1994483,31
1689043108.2494524,30
1689043108.2994523,29
1689043108.349452,27
1689043108.3994474,25
1689043108.4494479,25
1689043108.4994519,24
1689043108.5494478,30
1689043108.5994468,47
1689043108.6494482,59
1689043108.6994514,56
1689043108.7494519,51
1689043108.7994473,50
1689043108.8494475,48
1689043108.883448,48
1689043108.933451,48
1689043108.9834514,45
1689043109.0334513,41
1689043109.0844507,38
1689043109.1334467,35
1689043109.1834466,34
1689043109.2334466,33
1689043109.2834504,31
1689043109.3334506,29
1689043109.3834503,26
1689043109.4334502,24
1689043109.48445,23
1689043109.5344503,34
1689043109.5844507,52
1689043109.633446,59
1689043109.6834466,54
1689043109.73345,51
1689043109.7834458,50
1689043109.8334494,49
1689043109.8724453,49
1689043109.9194496,48
1689043109.9694455,44
1689043110.0194492,40
1689043110.0694494,36
1689043110.119445,33
1689043110.1694493,32
1689043110.2194488,31
1689043110.269445,29
1689043110.3194492,27
1689043110.3694441,25
1689043110.4194486,23
1689043110.4694445,24
1689043110.5194445,39
1689043110.5694485,59
1689043110.6194496,63
1689043110.6694481,58
1689043110.719278,55
1689043110.7692025,53
1689043110.819207,51
1689043110.8692021,51
1689043110.902207,48
1689043110.9522026,45
1689043111.0022018,40
1689043111.0522068,36
1689043111.1022022,33
1689043111.1522064,32
1689043111.2022023,31
1689043111.2522063,29
1689043111.302207,26
1689043111.3522072,24
1689043111.402206,22
1689043111.452206,21
1689043111.5022016,35
1689043111.552201,60
1689043111.602201,69
1689043111.6522062,63
1689043111.7022054,59
1689043111.7522013,56
1689043111.8022053,54
1689043111.8522053,53
1689043111.8862057,52
1689043111.9412012,50
1689043111.992202,45
1689043112.0412016,40
1689043112.1002007,37
1689043112.1502006,34
1689043112.2002563,31
1689043112.2499337,29
1689043112.2999337,26
1689043112.3499374,22
1689043112.3996546,19
1689043112.4496374,18
1689043112.4996424,18
1689043112.5496423,32
1689043112.5996418,59
1689043112.6496422,71
1689043112.6996417,65
1689043112.7496417,59
1689043112.7996368,55
1689043112.8499446,52
1689043112.8833358,50
1689043112.9329443,49
1689043112.9829404,45
1689043113.0329444,39
1689043113.0829449,33
1689043113.132941,28
1689043113.1829453,26
1689043113.2329392,25
1689043113.2829394,24
1689043113.332939,22
1689043113.3829405,20
1689043113.4329436,18
1689043113.482944,16
1689043113.533939,19
1689043113.5839436,41
1689043113.6339395,69
1689043113.6829393,73
1689043113.732943,64
1689043113.7829392,57
1689043113.8329432,52
1689043113.8719397,50
1689043113.9159427,50
1689043113.9659388,48
1689043114.015939,42
1689043114.0659428,36
1689043114.115943,31
1689043114.1659381,26
1689043114.215943,24
1689043114.2659426,24
1689043114.3159378,22
1689043114.3659382,20
1689043114.4169436,17
1689043114.4669378,15
1689043114.5169377,14
1689043114.5669417,38
1689043114.6169384,69
1689043114.6669416,76
1689043114.7169416,68
1689043114.7669368,58
1689043114.8169432,51
1689043114.867011,49
1689043114.9049413,50
1689043114.9529374,50
1689043115.0029368,44
1689043115.052941,37
1689043115.1030116,29
1689043115.1529408,25
1689043115.2029366,23
1689043115.2529356,23
1689043115.303207,23
1689043115.3532853,21
1689043115.403284,18
1689043115.4532828,15
1689043115.5032797,23
1689043115.5532837,53
1689043115.6032798,76
1689043115.6532805,73
1689043115.7032835,62
1689043115.7532835,53
1689043115.8032832,49
1689043115.853285,50
1689043115.8862836,51
1689043115.9362788,49
1689043115.9862828,41
1689043116.0362828,33
1689043116.0862787,27
1689043116.136283,24
1689043116.1862853,24
1689043116.2362823,23
1689043116.2862825,22
1689043116.3362784,20
1689043116.3862777,16
1689043116.436278,22
1689043116.4862826,51
1689043116.5362823,75
1689043116.586282,70
1689043116.636282,54
1689043116.686282,41
1689043116.7362776,36
1689043116.7862778,40
1689043116.8362765,43
1689043116.8722777,39
1689043116.9192774,33
1689043116.9692812,22
1689043117.0192776,15
1689043117.0692813,13
1689043117.119277,15
1689043117.169277,18
1689043117.2192814,20
1689043117.2702765,21
1689043117.3202758,38
1689043117.3702807,65
1689043117.4202807,73
1689043117.4702766,64
1689043117.5202804,48
1689043117.570276,40
1689043117.62028,45
1689043117.6702762,54
1689043117.7202804,52
1689043117.77028,43
1689043117.8202798,34
1689043117.8702755,26
1689043117.9032757,23
1689043117.9532795,23
1689043118.003275,24
1689043118.0532794,26
1689043118.1032753,44
1689043118.1532745,71
1689043118.2032793,78
1689043118.253279,68
1689043118.3033204,54
1689043118.3532805,46
1689043118.403275,50
1689043118.4532738,57
1689043118.5032785,55
1689043118.5532792,46
1689043118.6032767,37
1689043118.6532793,30
1689043118.7032747,28
1689043118.7532783,29
1689043118.8032737,29
1689043118.8532732,32
1689043118.8862817,52
1689043118.936273,71
1689043118.986056,84
1689043119.0361922,77
1689043119.0861518,67
1689043119.1361473,61
1689043119.186152,58
1689043119.2361476,59
1689043119.2861516,57
1689043119.3361518,50
1689043119.3861475,42
1689043119.4361515,36
1689043119.4861524,33
1689043119.536147,32
1689043119.5861518,31
1689043119.6361473,29
1689043119.6861517,37
1689043119.7361472,61
1689043119.7861538,78
1689043119.8361483,75
1689043119.8721466,68
1689043119.920146,64
1689043119.970146,59
1689043120.0201502,56
1689043120.0701463,55
1689043120.1201465,50
1689043120.1701465,43
1689043120.2201502,37
1689043120.27015,32
1689043120.3201487,30
1689043120.3701468,29
1689043120.4201448,27
1689043120.470438,24
1689043120.520054,30
1689043120.5696037,54
1689043120.6199238,73
1689043120.6709359,71
1689043120.7199237,64
1689043120.7699237,59
1689043120.8199272,55
1689043120.8699226,52
1689043120.9029233,50
1689043120.9529228,47
1689043121.002927,41
1689043121.052927,35
1689043121.1029227,31
1689043121.152927,29
1689043121.2029223,28
1689043121.2529268,27
1689043121.3029268,25
1689043121.3529222,22
1689043121.4029267,23
1689043121.4529278,42
1689043121.5029225,69
1689043121.5529263,74
1689043121.6169264,65
1689043121.666922,62
1689043121.7169218,57
1689043121.766926,54
1689043121.8169224,52
1689043121.866921,49
1689043121.899921,42
1689043121.9499407,38
1689043121.999962,33
1689043122.049966,30
1689043122.0999618,29
1689043122.149962,28
1689043122.199966,25
1689043122.249966,22
1689043122.2999609,20
1689043122.3499618,21
1689043122.3999617,40
1689043122.4499655,66
1689043122.4999657,73
1689043122.549966,66
1689043122.5999615,61
1689043122.6499653,56
1689043122.6999652,52
1689043122.7499654,51
1689043122.7999604,47
1689043122.84996,41
1689043122.8839648,35
1689043122.9349658,31
1689043122.98396,28
1689043123.0339608,27
1689043123.0849643,26
1689043123.1339602,24
1689043123.1839643,21
1689043123.2339644,18
1689043123.283964,19
1689043123.3339596,39
1689043123.383959,65
1689043123.4339638,72
1689043123.4839656,65
1689043123.5339596,59
1689043123.5839634,55
1689043123.6339595,51
1689043123.6839607,50
1689043123.7339637,46
1689043123.7839592,40
1689043123.833963,33
1689043123.8729584,27
1689043123.9169629,26
1689043123.966959,25
1689043124.016958,24
1689043124.0669587,22
1689043124.116963,19
1689043124.166959,16
1689043124.216963,16
1689043124.2669625,35
1689043124.3169622,64
1689043124.3669581,74
1689043124.4169624,69
1689043124.4669583,65
1689043124.5169575,61
1689043124.5669632,57
1689043124.6169622,55
1689043124.6669617,51
1689043124.7169573,44
1689043124.7669575,38
1689043124.8189616,31
1689043124.866958,28
1689043124.9079614,26
1689043124.9559574,25
1689043125.0059571,23
1689043125.0559611,19
1689043125.116961,17
1689043125.1669612,16
1689043125.2169623,31
1689043125.2669566,63
1689043125.3169606,72
1689043125.3669605,66
1689043125.416958,59
1689043125.4669604,55
1689043125.5169601,50
1689043125.581866,47
1689043125.6318657,42
1689043125.6818707,36
1689043125.731871,29
1689043125.7828665,24
1689043125.8318672,22
1689043125.8728657,20
1689043125.9148703,19
1689043125.9648652,17
1689043126.0148702,14
1689043126.0648654,11
1689043126.11687,9
1689043126.1668653,19
1689043126.2168653,49
1689043126.266865,61
1689043126.3168697,56
1689043126.3668656,48
1689043126.4168649,43
1689043126.466865,41
1689043126.5168695,41
1689043126.5668693,40
1689043126.616865,36
1689043126.6668642,30
1689043126.717397,25
1689043126.7672808,22
1689043126.8175747,22
1689043126.866568,22
1689043126.905568,20
1689043126.9535725,19
1689043127.0035725,17
1689043127.0536292,30
1689043127.103568,47
1689043127.1535723,49
1689043127.2035682,40
1689043127.2536628,33
1689043127.3040552,30
1689043127.354062,35
1689043127.404055,38
1689043127.4540553,35
1689043127.5040545,28
1689043127.5540543,23
1689043127.6040547,21
1689043127.654054,21
1689043127.7038198,22
1689043127.7543113,21
1689043127.8043118,21
1689043127.8543115,34
1689043127.887308,51
1689043127.937307,54
1689043127.9873111,48
1689043128.0383072,41
1689043128.0873113,38
1689043128.1373072,39
1689043128.187306,41
1689043128.237311,40
1689043128.2873063,36
1689043128.337311,30
1689043128.3873057,27
1689043128.4373066,26
1689043128.4873056,27
1689043128.537312,26
1689043128.587306,24
1689043128.6373062,29
1689043128.68731,47
1689043128.737306,58
1689043128.7873101,53
1689043128.837306,48
1689043128.87331,44
1689043128.9203098,43
1689043128.9703112,42
1689043129.0203097,42
1689043129.070305,40
1689043129.1203043,35
1689043129.1703053,31
1689043129.2203093,29
1689043129.270305,29
1689043129.3203094,29
1689043129.370305,28
1689043129.420309,26
1689043129.4703057,31
1689043129.5196316,47
1689043129.5696278,56
1689043129.6196277,51
1689043129.669627,46
1689043129.7196317,44
1689043129.769627,41
1689043129.8206313,40
1689043129.8706272,40
1689043129.9036264,38
1689043129.953631,35
1689043130.0036273,31
1689043130.0536308,29
1689043130.1036339,29
1689043130.153631,28
1689043130.2036269,27
1689043130.2536306,25
1689043130.303627,27
1689043130.3536303,41
1689043130.4036288,53
1689043130.4536304,61
1689043130.5036259,51
1689043130.553626,46
1689043130.61763,41
1689043130.667625,41
1689043130.7176254,41
1689043130.7676265,36
1689043130.8176298,28
1689043130.8676267,22
1689043130.90063,19
1689043130.9506252,18
1689043131.0006251,18
1689043131.0506256,19
1689043131.1006317,18
1689043131.1506252,18
1689043131.2006252,41
1689043131.250624,65
1689043131.3016248,62
1689043131.3506248,52
1689043131.4006238,48
1689043131.4506285,44
1689043131.5016263,42
1689043131.5506287,42
1689043131.6006258,38
1689043131.650624,31
1689043131.7006242,25
1689043131.7506278,21
1689043131.8006282,19
1689043131.8506238,18
1689043131.8846283,15
1689043131.9346275,12
1689043131.9846275,9
1689043132.0346248,14
1689043132.084629,41
1689043132.1346278,63
1689043132.1846273,58
1689043132.2346702,52
1689043132.2846272,50
1689043132.3346245,46
1689043132.3846269,44
1689043132.4346244,43
1689043132.484624,39
1689043132.5346227,32
1689043132.5846267,23
1689043132.6346264,19
1689043132.6846266,17
1689043132.734624,16
1689043132.7846274,13
1689043132.8346236,10
1689043132.8726223,8
1689043132.9176211,7
1689043132.9676218,17
1689043133.0176225,45
1689043133.067626,59
1689043133.1176226,55
1689043133.1676261,42
1689043133.2176208,40
1689043133.2676213,38
1689043133.317622,35
1689043133.367626,34
1689043133.4176257,28
1689043133.467626,21
1689043133.5176253,17
1689043133.5676212,14
1689043133.6176207,12
1689043133.6676219,10
1689043133.7176247,9
1689043133.7676249,7
1689043133.817621,4
1689043133.8676248,10
1689043133.9006197,40
1689043133.9506207,51
1689043134.0006218,49
1689043134.0506246,37
1689043134.10062,33
1689043134.150678,30
1689043134.2006197,28
1689043134.250624,28
1689043134.3006237,25
1689043134.350624,19
1689043134.400622,16
1689043134.4506245,12
1689043134.5006244,11
1689043134.5506232,11
1689043134.6016192,10
1689043134.6506236,7
1689043134.701621,3
1689043134.750623,16
1689043134.8006208,40
1689043134.8536227,43
1689043134.8876183,31
1689043134.942623,24
1689043134.9926202,19
1689043135.042619,24
1689043135.100623,32
1689043135.1506178,28
1689043135.2006195,20
1689043135.2506223,15
1689043135.3006177,14
1689043135.3506222,16
1689043135.4006186,19
1689043135.4506183,21
1689043135.500617,22
1689043135.550617,39
1689043135.6016188,61
1689043135.6506214,60
1689043135.700622,47
1689043135.750617,39
1689043135.8006172,35
1689043135.850622,38
1689043135.8846211,42
1689043135.9346259,40
1689043135.984621,35
1689043136.034617,28
1689043136.0866213,24
1689043136.1346207,22
1689043136.1846209,22
1689043136.2346158,20
1689043136.2846158,18
1689043136.3346176,24
1689043136.3846204,49
1689043136.4346178,71
1689043136.4846153,66
1689043136.5346205,58
1689043136.58462,54
1689043136.6346202,51
1689043136.6846197,52
1689043136.7346966,54
1689043136.7846992,50
1689043136.8356986,42
1689043136.873698,37
1689043136.917693,34
1689043136.9676979,32
1689043137.0176973,31
1689043137.067698,29
1689043137.117697,26
1689043137.167694,30
1689043137.2176974,57
1689043137.2677002,83
1689043137.3176973,79
1689043137.3676927,70
1689043137.417699,66
1689043137.4676974,63
1689043137.5176978,63
1689043137.5676932,64
1689043137.6176925,60
1689043137.6676915,51
1689043137.7176962,44
1689043137.767692,39
1689043137.8176963,36
1689043137.8676958,33
1689043137.9066937,30
1689043137.953696,26
1689043138.0036933,29
1689043138.0536957,56
1689043138.103691,85
1689043138.1546955,86
1689043138.2046955,78
1689043138.2546966,74
1689043138.304696,73
1689043138.3546908,76
1689043138.4046912,82
1689043138.454735,82
1689043138.5047302,73
1689043138.554735,64
1689043138.604735,59
1689043138.654731,52
1689043138.70473,45
1689043138.7547345,39
1689043138.8047304,33
1689043138.8547294,37
1689043138.887734,65
1689043138.9377306,87
1689043138.9877343,95
1689043139.0377297,86
1689043139.0877295,81
1689043139.1377301,76
1689043139.1877353,71
1689043139.2377295,68
1689043139.2877336,63
1689043139.3377316,53
1689043139.38773,43
1689043139.4377334,35
1689043139.4877336,28
1689043139.5377297,22
1689043139.5887332,17
1689043139.6377344,12
1689043139.6877332,12
1689043139.737729,37
1689043139.7877324,68
1689043139.8377285,73
1689043139.8737333,66
1689043139.9207327,62
1689043139.9707296,58
1689043140.0207949,55
1689043140.0707283,57
1689043140.120792,56
1689043140.170729,47
1689043140.2205963,39
1689043140.2705915,33
1689043140.3205962,29
1689043140.3715909,26
1689043140.4205916,23
1689043140.4705915,26
1689043140.5205953,46
1689043140.5705955,68
1689043140.620591,68
1689043140.6705909,58
1689043140.7215903,49
1689043140.7705922,47
1689043140.82059,52
1689043140.8705907,51
1689043140.9045904,43
1689043140.9545896,37
1689043141.0052795,29
1689043141.055382,25
1689043141.1053808,23
1689043141.155381,22
1689043141.2053802,18
1689043141.25538,24
1689043141.3053806,52
1689043141.3553798,76
1689043141.4053807,76
1689043141.455376,70
1689043141.505382,65
1689043141.5553796,61
1689043141.60538,61
1689043141.655376,58
1689043141.7053797,48
1689043141.7553792,38
1689043141.8053792,30
1689043141.8553758,26
1689043141.8883789,24
1689043141.9383764,23
1689043141.9883761,21
1689043142.0383747,23
1689043142.0913806,47
1689043142.1413789,78
1689043142.1913757,82
1689043142.2413788,76
1689043142.2913785,73
1689043142.3413804,66
1689043142.3913734,60
1689043142.4413784,57
1689043142.4913778,50
1689043142.5413747,41
1689043142.5913756,34
1689043142.6413777,27
1689043142.6913779,23
1689043142.7413778,20
1689043142.791374,17
1689043142.841373,13
1689043142.8743796,17
1689043142.9303744,39
1689043142.980379,67
1689043143.0303786,70
1689043143.0863776,63
1689043143.1353738,61
1689043143.1853771,56
1689043143.2353728,51
1689043143.2853765,48
1689043143.335372,42
1689043143.3853765,36
1689043143.4353764,29
1689043143.4853737,24
1689043143.535373,21
1689043143.5853715,17
1689043143.6347184,14
1689043143.6861153,11
1689043143.7361104,12
1689043143.7871153,36
1689043143.836115,60
1689043143.8741162,60
1689043143.922112,55
1689043143.9721105,52
1689043144.0221143,48
1689043144.0721107,45
1689043144.1221094,44
1689043144.1721141,39
1689043144.2221107,31
1689043144.272114,25
1689043144.322114,21
1689043144.37211,19
1689043144.4221091,17
1689043144.4721098,14
1689043144.5221138,11
1689043144.572116,8
1689043144.6221113,15
1689043144.672109,41
1689043144.7221136,60
1689043144.772115,56
1689043144.8221133,52
1689043144.8721085,50
1689043144.9101086,46
1689043144.9581099,46
1689043145.0081131,45
1689043145.0581102,40
1689043145.1191087,33
1689043145.1691098,28
1689043145.2191076,24
1689043145.2692554,22
1689043145.3193896,19
1689043145.3693917,17
1689043145.4193945,15
1689043145.4693944,13
1689043145.5193965,17
1689043145.569392,45
1689043145.6193938,68
1689043145.6693904,67
1689043145.7193906,60
1689043145.7693954,58
1689043145.8193939,54
1689043145.8693936,52
1689043145.9023943,50
1689043145.9523938,46
1689043146.0023887,40
1689043146.0523934,33
1689043146.1023936,27
1689043146.1523902,24
1689043146.2023885,20
1689043146.2523932,15
1689043146.302394,9
1689043146.3523927,2
1689043146.4023902,0
1689043146.4523928,0
1689043146.5023928,18
1689043146.5523927,41
1689043146.6023877,41
1689043146.6523929,38
1689043146.7023885,35
1689043146.7523923,31
1689043146.8023896,33
1689043146.8523922,36
1689043146.8863878,34
1689043146.9363897,31
1689043146.9863918,28
1689043147.0363877,26
1689043147.085387,25
1689043147.136387,23
1689043147.1863866,20
1689043147.2363873,19
1689043147.2863867,32
1689043147.336388,46
1689043147.3863914,45
1689043147.4363914,36
1689043147.4863865,29
1689043147.5373864,31
1689043147.5863907,38
1689043147.6363873,36
1689043147.6863859,29
1689043147.736387,24
1689043147.7863865,22
1689043147.8363855,22
1689043147.8752894,22
1689043147.9191337,20
1689043147.969138,18
1689043148.019137,29
1689043148.0691323,49
1689043148.1221323,55
1689043148.171892,47
1689043148.2219622,43
1689043148.271957,41
1689043148.3219566,43
1689043148.3719523,43
1689043148.4219515,39
1689043148.4719524,33
1689043148.5219567,28
1689043148.585956,25
1689043148.6359525,24
1689043148.6859674,23
1689043148.7359521,20
1689043148.7859557,32
1689043148.8359518,53
1689043148.8749573,60
1689043148.9189558,55
1689043148.968956,52
1689043149.0189555,50
1689043149.0689554,46
1689043149.1189554,46
1689043149.168951,44
1689043149.218955,39
1689043149.2689555,33
1689043149.3189502,29
1689043149.368951,27
1689043149.418955,25
1689043149.4689548,23
1689043149.5189502,20
1689043149.5689504,28
1689043149.6189508,48
1689043149.6689506,56
1689043149.7189543,51
1689043149.7689495,49
1689043149.8209538,47
1689043149.868954,43
1689043149.9029498,42
1689043149.95295,41
1689043150.00295,38
1689043150.0529535,33
1689043150.1029494,29
1689043150.1529534,27
1689043150.2029555,26
1689043150.252953,24
1689043150.3029482,21
1689043150.3529532,19
1689043150.4029484,33
1689043150.452813,53
1689043150.503535,56
1689043150.5525346,51
1689043150.6025343,53
1689043150.6525316,53
1689043150.7025344,51
1689043150.7525344,49
1689043150.8025293,46
1689043150.8525295,40
1689043150.885534,34
1689043150.9355352,31
1689043150.985534,28
1689043151.035534,26
1689043151.085529,23
1689043151.135534,20
1689043151.1855285,18
1689043151.2355294,17
1689043151.286533,31
1689043151.3365293,52
1689043151.3865285,54
1689043151.435533,47
1689043151.485529,44
1689043151.5355291,40
1689043151.585533,35
1689043151.6355293,33
1689043151.6855326,30
1689043151.7355287,27
1689043151.7855349,25
1689043151.8355277,22
1689043151.8745294,20
1689043151.9215276,19
1689043151.9715285,19
1689043152.0215318,17
1689043152.0715325,19
1689043152.121527,38
1689043152.1715271,54
1689043152.2225435,51
1689043152.272533,45
1689043152.321527,41
1689043152.371527,40
1689043152.4215314,44
1689043152.4715266,44
1689043152.521531,40
1689043152.5865314,34
1689043152.6355312,31
1689043152.686362,30
1689043152.7363627,28
1689043152.7863622,26
1689043152.8363667,25
1689043152.8753662,39
1689043152.9203615,54
1689043152.9703617,58
1689043153.0203667,53
1689043153.0703657,50
1689043153.1203606,48
1689043153.1703658,49
1689043153.2203612,52
1689043153.2703612,48
1689043153.3203654,44
1689043153.370365,38
1689043153.42036,35
1689043153.4703648,34
1689043153.520361,32
1689043153.5703607,29
1689043153.6203644,26
1689043153.6703646,30
1689043153.7203608,55
1689043153.7703645,69
1689043153.820364,67
1689043153.8703604,64
1689043153.9033592,64
1689043153.9533641,61
1689043154.0033605,58
1689043154.0533638,56
1689043154.1033595,52
1689043154.1533637,45
1689043154.2033665,40
1689043154.2533598,37
1689043154.3033586,35
1689043154.3533633,33
1689043154.4033592,29
1689043154.4533596,26
1689043154.5033581,31
1689043154.553363,51
1689043154.6033633,67
1689043154.653358,62
1689043154.7033584,59
1689043154.7526672,57
1689043154.8028822,52
1689043154.852886,49
1689043154.8858829,46
1689043154.935882,43
1689043154.985886,37
1689043155.0358815,31
1689043155.085882,27
1689043155.1358817,25
1689043155.185886,22
1689043155.236882,20
1689043155.2858853,15
1689043155.3358815,11
1689043155.3878813,17
1689043155.435882,39
1689043155.485881,42
1689043155.535885,26
1689043155.5858853,25
1689043155.6358812,19
1689043155.6858804,9
1689043155.7358806,7
1689043155.7858863,2
1689043155.8358848,0
1689043155.8748846,0
1689043155.9198802,0
1689043155.9698799,0
1689043156.019884,0
1689043156.0698805,0
1689043156.11988,1
1689043156.1698864,31
1689043156.2198808,50
1689043156.2698839,40
1689043156.3198798,28
1689043156.36988,20
1689043156.4198837,21
1689043156.4698796,28
1689043156.5198836,26
1689043156.56988,15
1689043156.6198835,6
1689043156.6698837,3
1689043156.7198784,4
1689043156.7698836,3
1689043156.8198788,0
1689043156.8698785,6
1689043156.9028788,48
1689043156.9528828,62
1689043157.0028825,60
1689043157.0528786,48
1689043157.1028843,43
1689043157.152878,39
1689043157.2030027,40
1689043157.2534385,40
1689043157.3029456,33
1689043157.3529499,23
1689043157.4029448,16
1689043157.4529533,14
1689043157.5029497,13
1689043157.5529456,11
1689043157.602945,13
1689043157.6529448,43
1689043157.702945,76
1689043157.752949,73
1689043157.8029451,67
1689043157.8529487,67
1689043157.8869445,60
1689043157.9369457,57
1689043157.9869497,57
1689043158.036949,51
1689043158.0869486,42
1689043158.136944,33
1689043158.1869433,29
1689043158.2370558,27
1689043158.286626,23
1689043158.3366313,17
1689043158.3866258,15
1689043158.43863,44
1689043158.48763,78
1689043158.5366254,75
1689043158.5866306,68
1689043158.6366296,69
1689043158.6866252,62
1689043158.7366295,55
1689043158.7866294,53
1689043158.8366249,46
1689043158.8756294,36
1689043158.9196289,30
1689043158.9696288,23
1689043159.0196288,19
1689043159.0696251,16
1689043159.1196253,11
1689043159.1696298,6
1689043159.2196283,1
1689043159.2696242,15
1689043159.3203497,62
1689043159.3703485,71
1689043159.420351,60
1689043159.4702785,59
1689043159.5204823,58
1689043159.569816,50
1689043159.6203344,47
1689043159.6703303,44
1689043159.7203357,37
1689043159.7703342,28
1689043159.8223345,22
1689043159.870336,18
1689043159.9033303,17
1689043159.9533293,15
1689043160.003334,12
1689043160.0533338,8
1689043160.106334,11
1689043160.1563292,48
1689043160.2063336,71
1689043160.2563288,62
1689043160.3063335,59
1689043160.3563294,58
1689043160.4063337,50
1689043160.4563334,47
1689043160.5063334,45
1689043160.5563288,37
1689043160.606333,27
1689043160.6563287,17
1689043160.7063332,9
1689043160.7563276,3
1689043160.8063288,0
1689043160.8563285,0
1689043160.8903286,0
1689043160.9403276,0
1689043160.9899726,0
1689043161.0402188,10
1689043161.097215,43
1689043161.14522,38
1689043161.195219,29
1689043161.2452137,27
1689043161.2950587,19
1689043161.3445258,17
1689043161.3954425,20
1689043161.444632,16
1689043161.495248,11
1689043161.5452485,6
1689043161.5952523,4
1689043161.645252,3
1689043161.69525,0
1689043161.745252,0
1689043161.7952542,6
1689043161.8452516,35
1689043161.8792515,45
1689043161.929248,39
1689043161.9792511,28
1689043162.0292468,23
1689043162.0872512,24
1689043162.1372464,31
1689043162.187246,26
1689043162.2372527,16
1689043162.2872472,9
1689043162.3373084,7
1689043162.3872468,7
1689043162.4372456,6
1689043162.4872503,3
1689043162.5372515,0
1689043162.5882502,4
1689043162.6382508,40
1689043162.6872458,69
1689043162.7372463,61
1689043162.7872477,56
1689043162.8372505,57
1689043162.8762498,50
1689043162.9202461,45
1689043162.97025,43
1689043163.0202496,40
1689043163.0702496,32
1689043163.1202471,24
1689043163.1702497,18
1689043163.2202497,16
1689043163.270245,14
1689043163.3202493,10
1689043163.3702455,6
1689043163.4202487,1
1689043163.4702487,8
1689043163.5202458,51
1689043163.5702465,70
1689043163.6202438,62
1689043163.6700554,60
1689043163.7199607,61
1689043163.769967,56
1689043163.819962,53
1689043163.8699648,50
1689043163.903964,42
1689043163.9539611,38
1689043164.003965,31
1689043164.0539608,26
1689043164.103964,23
1689043164.153965,20
1689043164.2039592,16
1689043164.2539613,13
1689043164.303959,10
1689043164.3539608,26
1689043164.4039636,61
1689043164.4539635,68
1689043164.503965,56
1689043164.5539632,55
1689043164.6179643,50
1689043164.6679628,46
1689043164.7179592,45
1689043164.7679589,39
1689043164.8179579,32
1689043164.8679588,25
1689043164.9009588,22
1689043164.9509594,20
1689043165.0009577,18
1689043165.0509577,14
1689043165.1039624,10
1689043165.1539595,17
1689043165.203962,44
1689043165.253962,54
1689043165.3039575,42
1689043165.3539617,39
1689043165.403957,34
1689043165.453959,26
1689043165.5039575,24
1689043165.5539587,21
1689043165.6039572,13
1689043165.6539564,6
1689043165.7039573,1
1689043165.7539582,0
1689043165.803957,0
1689043165.853961,0
1689043165.8869627,0
1689043165.9389608,7
1689043165.9889574,29
1689043166.0369563,30
1689043166.0879562,16
1689043166.1373987,2
1689043166.1893954,5
1689043166.2373939,17
1689043166.2873952,15
1689043166.337394,4
1689043166.3873956,0
1689043166.4373941,0
1689043166.4873981,0
1689043166.537398,0
1689043166.5873988,1
1689043166.6389189,24
1689043166.686915,42
1689043166.736914,36
1689043166.786916,22
1689043166.836914,13
1689043166.87592,19
1689043166.9209185,26
1689043166.9709184,26
1689043167.0209148,14
1689043167.0709147,6
1689043167.1209314,5
1689043167.1709182,6
1689043167.2209198,7
1689043167.2709203,25
1689043167.3209178,56
1689043167.370913,56
1689043167.4209187,46
1689043167.4709177,41
1689043167.5209148,33
1689043167.5709174,31
1689043167.620914,34
1689043167.6709132,28
1689043167.7209172,18
1689043167.7709174,12
1689043167.8209167,11
1689043167.8709168,26
1689043167.903917,61
1689043167.953914,69
1689043168.0039127,63
1689043168.0539167,60
1689043168.1039124,56
1689043168.1539166,45
1689043168.203912,42
1689043168.2539122,44
1689043168.303916,38
1689043168.353913,29
1689043168.403916,24
1689043168.4539115,31
1689043168.5039113,62
1689043168.5539157,81
1689043168.6039155,73
1689043168.6539135,72
1689043168.7039154,67
1689043168.753911,53
1689043168.803915,49
1689043168.8539152,49
1689043168.8879168,43
1689043168.9379113,38
1689043168.9879148,29
1689043169.03791,27
1689043169.087911,47
1689043169.138915,77
1689043169.187912,80
1689043169.2379105,74
1689043169.2879145,72
1689043169.3379102,60
1689043169.3879158,48
1689043169.4379098,45
1689043169.487911,41
1689043169.537911,33
1689043169.5879114,25
1689043169.6379097,21
1689043169.6879137,18
1689043169.7389135,32
1689043169.7879138,61
1689043169.8379138,67
1689043169.8759134,60
1689043169.9209113,60
1689043169.9709132,54
1689043170.0209093,42
1689043170.0709136,40
1689043170.1209128,37
1689043170.1709082,30
1689043170.220913,23
1689043170.270913,17
1689043170.32091,14
1689043170.370908,11
1689043170.4209123,8
1689043170.470913,4
1689043170.5209079,1
1689043170.5709124,0
1689043170.620912,0
1689043170.670912,0
1689043170.7209094,31
1689043170.7706952,58
1689043170.8213265,52
1689043170.8710616,46
1689043170.9038055,47
1689043170.9539578,43
1689043171.004371,37
1689043171.0536728,35
1689043171.1045032,29
1689043171.1538615,23
1689043171.2043788,17
1689043171.2535686,14
1689043171.3034694,10
1689043171.3542674,8
1689043171.4039297,5
1689043171.453579,2
1689043171.504125,0
1689043171.5538073,12
1689043171.6177163,51
1689043171.668272,50
1689043171.7179086,45
1689043171.7676072,46
1689043171.8182523,42
1689043171.8678362,39
1689043171.9024131,38
1689043171.952144,35
1689043172.001853,29
1689043172.0520818,24
1689043172.1042519,21
1689043172.1544209,18
1689043172.2041972,16
1689043172.253927,14
1689043172.3037186,11
1689043172.3543122,27
1689043172.4037673,57
1689043172.4538164,62
1689043172.5039032,54
1689043172.5539935,54
1689043172.6037905,51
1689043172.6542025,45
1689043172.7049415,43
1689043172.7541738,39
1689043172.8039396,31
1689043172.8537579,23
1689043172.8877578,16
1689043172.9377577,14
1689043172.9877577,12
1689043173.0377572,9
1689043173.087754,4
1689043173.1397576,15
1689043173.188753,48
1689043173.2377572,61
1689043173.2877522,51
1689043173.3377569,48
1689043173.3877568,45
1689043173.437757,40
1689043173.4877584,41
1689043173.5377524,40
1689043173.587754,33
1689043173.6377563,26
1689043173.6877563,20
1689043173.7387514,18
1689043173.787756,16
1689043173.8377602,21
1689043173.876756,52
1689043173.9207535,72
1689043173.9707515,72
1689043174.020756,63
1689043174.0707514,59
1689043174.120752,55
1689043174.1707556,56
1689043174.2207513,57
1689043174.2707505,50
1689043174.3207524,40
1689043174.3707554,31
1689043174.420751,27
1689043174.470751,25
1689043174.5210054,35
1689043174.5709465,76
1689043174.6209414,94
1689043174.670941,88
1689043174.7209437,83
1689043174.770946,80
1689043174.8239462,75
1689043174.8709416,75
1689043174.904941,71
1689043174.9549458,64
1689043175.004947,54
1689043175.0549457,45
1689043175.104946,40
1689043175.154946,37
1689043175.2049453,47
1689043175.2549455,87
1689043175.304947,114
1689043175.354945,110
1689043175.4049451,109
1689043175.4550273,107
1689043175.5049446,99
1689043175.5549407,95
1689043175.6049454,90
1689043175.6549447,58
1689043175.7049448,51
1689043175.7549446,46
1689043175.8049443,42
1689043175.854941,51
1689043175.8889413,72
1689043175.9379444,80
1689043175.9879394,78
1689043176.0379438,74
1689043176.087944,70
1689043176.137939,65
1689043176.1879437,61
1689043176.2379453,57
1689043176.2879405,50
1689043176.337939,44
1689043176.3879392,39
1689043176.4379401,34
1689043176.488939,38
1689043176.5379398,57
1689043176.5879433,73
1689043176.6379437,72
1689043176.6879401,67
1689043176.7379427,63
1689043176.7879388,58
1689043176.8379424,56
1689043176.8769426,51
1689043176.920939,47
1689043176.9709382,40
1689043177.020939,34
1689043177.0709436,29
1689043177.121939,26
1689043177.171943,35
1689043177.2219424,60
1689043177.271942,68
1689043177.3219419,64
1689043177.3719423,59
1689043177.4219418,55
1689043177.4719415,51
1689043177.5219393,50
1689043177.5859375,44
1689043177.634941,38
1689043177.6849372,31
1689043177.7349372,26
1689043177.7849407,22
1689043177.834941,28
1689043177.876941,50
1689043177.9189382,63
1689043177.968936,64
1689043178.0189369,57
1689043178.0689356,50
1689043178.1229403,46
1689043178.1719356,44
1689043178.221938,41
1689043178.2719355,35
1689043178.3219364,28
1689043178.3719358,20
1689043178.4219358,15
1689043178.4719365,12
1689043178.52194,21
1689043178.5719395,44
1689043178.6219351,56
1689043178.6719346,50
1689043178.7214854,44
1689043178.771932,38
1689043178.8218913,37
1689043178.8718965,37
1689043178.9048913,34
1689043178.954896,30
1689043179.0048912,24
1689043179.0548925,18
1689043179.1048906,13
1689043179.1548927,19
1689043179.2048953,41
1689043179.254891,56
1689043179.3048954,51
1689043179.354895,42
1689043179.404895,36
1689043179.4548917,35
1689043179.5048947,39
1689043179.582891,37
1689043179.6328948,26
1689043179.6828918,20
1689043179.732891,18
1689043179.7832046,35
1689043179.833205,61
1689043179.8772044,68
1689043179.9162047,63
1689043179.9662006,53
1689043180.0162013,46
1689043180.0662048,46
1689043180.1222,48
1689043180.172204,46
1689043180.2222,39
1689043180.2722037,31
1689043180.3221998,26
1689043180.3721995,43
1689043180.4221997,72
1689043180.4721987,81
1689043180.5222018,74
1689043180.5722036,65
1689043180.6221993,58
1689043180.6721988,57
1689043180.7222004,57
1689043180.772203,52
1689043180.8222034,42
1689043180.872203,34
1689043180.9052029,35
1689043180.9551997,48
1689043181.0051563,81
1689043181.054575,93
1689043181.105074,87
1689043181.1546266,80
1689043181.2047105,71
1689043181.2547402,64
1689043181.3049698,59
1689043181.3547094,51
1689043181.4044335,42
1689043181.4546924,35
1689043181.5044966,30
1689043181.5544457,49
1689043181.6053464,82
1689043181.6547532,92
1689043181.705224,86
1689043181.7544985,79
1689043181.8052251,69
1689043181.8546307,62
1689043181.8886309,58
1689043181.9391665,53
1689043181.9886935,44
1689043182.039033,35
1689043182.0892868,28
1689043182.1387265,26
1689043182.1914601,47
1689043182.2384608,80
1689043182.288747,88
1689043182.339065,81
1689043182.3886197,73
1689043182.439076,64
1689043182.4887297,58
1689043182.5391953,54
1689043182.5885284,49
1689043182.6385286,40
1689043182.6886444,31
1689043182.738795,24
1689043182.7890687,19
1689043182.8396788,28
1689043182.8766744,59
1689043182.9216774,78
1689043182.9717767,80
1689043183.0223553,72
1689043183.0722747,64
1689043183.1222708,57
1689043183.1715152,54
1689043183.221673,50
1689043183.2721922,41
1689043183.3217683,33
1689043183.372023,25
1689043183.4218454,20
1689043183.4718447,17
1689043183.5220885,19
1689043183.5720925,50
1689043183.6220884,74
1689043183.6722596,73
1689043183.7222557,64
1689043183.7723086,57
1689043183.821935,52
1689043183.8714435,50
1689043183.9044423,46
1689043183.955349,41
1689043184.0050032,34
1689043184.054999,26
1689043184.1047027,21
1689043184.1548274,18
1689043184.2049549,15
1689043184.2546651,22
1689043184.3051581,49
1689043184.3546927,71
1689043184.4046817,67
1689043184.454678,58
1689043184.5049443,51
1689043184.5549443,47
1689043184.6189442,44
1689043184.6689467,39
1689043184.7189453,30
1689043184.7684963,21
1689043184.8185005,14
1689043184.8687358,9
1689043184.9032915,6
1689043184.9529576,9
1689043185.0026312,33
1689043185.0526314,57
1689043185.1052241,57
1689043185.1552205,47
1689043185.2052243,40
1689043185.2548301,36
1689043185.304832,36
1689043185.354832,34
1689043185.4048357,28
1689043185.4552786,19
1689043185.5052087,13
1689043185.5843701,8
1689043185.6333702,7
1689043185.682502,26
1689043185.7327123,50
1689043185.7827144,52
1689043185.832917,42
1689043185.8779123,34
1689043185.9169157,32
1689043185.9669113,34
1689043186.0169122,37
1689043186.0669768,33
1689043186.1189115,26
1689043186.1689115,18
1689043186.2189114,13
1689043186.2689123,12
1689043186.3189116,28
1689043186.3719153,53
1689043186.421578,61
1689043186.4721956,52
1689043186.5221963,42
1689043186.586813,38
1689043186.636812,41
1689043186.6873932,41
1689043186.737394,35
1689043186.7872584,27
1689043186.8371787,21
1689043186.8781855,19
1689043186.9191806,27
1689043186.9721844,54
1689043187.0221846,72
1689043187.0723784,68
1689043187.122377,60
1689043187.1716871,53
1689043187.2216177,51
1689043187.2716184,52
1689043187.321748,49
1689043187.3714848,40
1689043187.4224856,32
1689043187.4722087,26
1689043187.522206,34
1689043187.586947,66
1689043187.6359515,84
1689043187.6856194,79
1689043187.735613,74
1689043187.7856882,66
1689043187.8356743,59
1689043187.878251,55
1689043187.9252465,52
1689043187.9752731,41
1689043188.0245569,34
1689043188.0746646,28
1689043188.1251595,29
1689043188.1751451,53
1689043188.2251024,81
1689043188.2753487,83
1689043188.324539,77
1689043188.374594,71
1689043188.424594,63
1689043188.475214,57
1689043188.5252101,52
1689043188.5892138,44
1689043188.6392093,33
1689043188.68921,25
1689043188.7392087,20
1689043188.788771,17
1689043188.839775,24
1689043188.8777723,53
1689043188.9277744,75
1689043188.977775,77
1689043189.0283551,72
1689043189.0889466,66
1689043189.1389534,58
1689043189.1890728,53
1689043189.2392037,47
1689043189.2887492,39
1689043189.338747,30
1689043189.389317,22
1689043189.4393182,17
1689043189.4893174,14
1689043189.5393176,11
1689043189.617317,30
1689043189.6673207,61
1689043189.7173212,73
1689043189.7673168,66
1689043189.8173223,59
1689043189.8673203,52
1689043189.9053166,48
1689043189.9533176,46
1689043190.0033202,41
1689043190.053316,34
1689043190.1063201,26
1689043190.1563382,20
1689043190.2063417,15
1689043190.2563372,12
1689043190.3063369,10
1689043190.3563373,8
1689043190.4063418,6
1689043190.456337,4
1689043190.5063412,3
1689043190.5563426,7
1689043190.6063411,37
1689043190.6563413,69
1689043190.706341,73
1689043190.7563367,62
1689043190.8063412,54
1689043190.8563366,49
1689043190.8893423,48
1689043190.9393408,46
1689043190.9893358,40
1689043191.0393403,31
1689043191.0903358,23
1689043191.13934,16
1689043191.189336,13
1689043191.2393403,10
1689043191.2893362,8
1689043191.3393407,6
1689043191.3893402,3
1689043191.4393404,2
1689043191.4913354,19
1689043191.5413394,53
1689043191.58934,69
1689043191.6393406,62
1689043191.6893356,51
1689043191.7393394,44
1689043191.7893393,43
1689043191.839339,44
1689043191.8783343,40
1689043191.923339,34
1689043191.9733388,25
1689043192.0233347,18
1689043192.073339,14
1689043192.1233392,11
1689043192.17334,9
1689043192.2233343,16
1689043192.2733383,48
1689043192.3233352,68
1689043192.373334,65
1689043192.423334,54
1689043192.473338,45
1689043192.5233386,42
1689043192.573338,45
1689043192.623334,45
1689043192.6733377,38
1689043192.7233331,30
1689043192.7733376,23
1689043192.823342,19
1689043192.8733373,17
1689043192.9063373,22
1689043192.9563375,39
1689043193.0063329,69
1689043193.056333,78
1689043193.1063373,67
1689043193.1563327,56
1689043193.2063324,50
1689043193.256332,53
1689043193.3063378,55
1689043193.3563364,49
1689043193.4063315,39
1689043193.4563322,29
1689043193.506338,24
1689043193.556332,21
1689043193.606333,22
1689043193.6563315,43
1689043193.706336,80
1689043193.7563574,94
1689043193.8063576,87
1689043193.8563576,78
1689043193.8903575,70
1689043193.9453619,67
1689043193.9953616,65
1689043194.0453572,59
1689043194.1063623,48
1689043194.1563625,38
1689043194.206361,32
1689043194.256357,31
1689043194.3063567,56
1689043194.3563612,92
1689043194.4063606,101
1689043194.4563565,93
1689043194.5063558,85
1689043194.5563607,75
1689043194.6063607,66
1689043194.656356,60
1689043194.7063606,52
1689043194.7563553,41
1689043194.8063567,31
1689043194.8563554,24
1689043194.8903615,20
1689043194.945356,18
1689043194.9953556,34
1689043195.0453596,73
1689043195.106362,97
1689043195.1563551,91
1689043195.206355,83
1689043195.2563548,74
1689043195.3063595,65
1689043195.3563597,59
1689043195.406364,52
1689043195.456362,41
1689043195.5063553,32
1689043195.5563548,24
1689043195.6063595,19
1689043195.6563556,16
1689043195.7063546,13
1689043195.7563589,11
1689043195.8063545,8
1689043195.8563547,6
1689043195.8903544,5
1689043195.9453595,6
1689043195.9953594,25
1689043196.0453596,69
1689043196.1063578,96
1689043196.1563582,90
1689043196.2063549,60
1689043196.2563581,57
1689043196.3063576,54
1689043196.3563588,52
1689043196.406358,48
1689043196.456354,43
1689043196.5063524,39
1689043196.5853522,35
1689043196.634353,32
1689043196.6843572,30
1689043196.7343569,28
1689043196.7843528,27
1689043196.8343518,25
1689043196.8793526,24
1689043196.9183526,26
1689043196.9683566,41
1689043197.0183523,58
1689043197.068353,59
1689043197.1233525,54
1689043197.1733563,49
1689043197.223352,46
1689043197.273356,45
1689043197.323356,43
1689043197.3733523,39
1689043197.423356,34
1689043197.4733555,29
1689043197.5233517,26
1689043197.5733554,24
1689043197.6233513,23
1689043197.6733556,22
1689043197.723355,20
1689043197.7733512,19
1689043197.8253555,24
1689043197.873355,40
1689043197.9063551,52
1689043197.956351,52
1689043198.0063546,46
1689043198.05735,41
1689043198.107355,39
1689043198.1573546,40
1689043198.2073505,40
1689043198.2573504,38
1689043198.3073502,33
1689043198.35735,29
1689043198.40735,27
1689043198.4573495,26
1689043198.5073504,25
1689043198.5573545,27
1689043198.607352,39
1689043198.65735,52
1689043198.7073538,53
1689043198.7573555,55
1689043198.8073533,44
1689043198.857355,40
1689043198.890354,43
1689043198.94035,45
1689043198.990349,41
1689043199.0403538,34
1689043199.0923483,25
1689043199.140349,19
1689043199.1903481,16
1689043199.2403529,15
1689043199.2903478,24
1689043199.3403485,54
1689043199.3903525,81
1689043199.4403553,79
1689043199.4903483,68
1689043199.5403473,58
1689043199.590348,54
1689043199.640352,56
1689043199.690353,55
1689043199.740352,47
1689043199.790347,38
1689043199.8403478,30
1689043199.879352,25
1689043199.9263477,23
1689043199.9763477,25
1689043200.0263464,50
1689043200.076351,86
1689043200.126347,94
1689043200.1763475,86
1689043200.226347,77
1689043200.2763462,68
1689043200.326347,63
1689043200.3763506,61
1689043200.426346,55
1689043200.4763515,45
1689043200.5263505,36
1689043200.5763466,29
1689043200.6263468,26
1689043200.67635,27
1689043200.7263465,47
1689043200.7763453,84
1689043200.826346,98
1689043200.8763459,92
1689043200.9103506,86
1689043200.9603498,80
1689043201.0103457,67
1689043201.06035,59
1689043201.1103446,53
1689043201.160129,44
1689043201.2101161,34
1689043201.2598865,24
1689043201.3099232,18
1689043201.3598912,15
1689043201.409887,13
1689043201.4595954,23
1689043201.510079,57
1689043201.5600777,82
1689043201.6100826,79
1689043201.660082,73
1689043201.7100823,65
1689043201.760082,55
1689043201.8100781,49
1689043201.8600779,43
1689043201.893077,35
1689043201.9480817,26
1689043201.9980824,18
1689043202.048082,12
1689043202.1070774,8
1689043202.1570778,5
1689043202.2069376,2
1689043202.2569375,0
1689043202.3069832,0
1689043202.3569791,7
1689043202.409983,42
1689043202.4599829,72
1689043202.509983,72
1689043202.559978,66
1689043202.6099787,60
1689043202.6599827,53
1689043202.7099826,48
1689043202.7599823,43
1689043202.809983,36
1689043202.8599825,27
1689043202.8929775,19
1689043202.9429784,15
1689043202.9929824,11
1689043203.0429823,9
1689043203.092982,7
1689043203.1429834,4
1689043203.192977,1
1689043203.2429771,2
1689043203.2939773,25
1689043203.342978,59
1689043203.3929815,69
1689043203.4429772,63
1689043203.4929771,56
1689043203.5429773,50
1689043203.5929787,45
1689043203.642983,42
1689043203.6929765,37
1689043203.7429767,28
1689043203.7939765,20
1689043203.842976,13
1689043203.8789763,9
1689043203.9259758,7
1689043203.9760373,5
1689043204.0259824,2
1689043204.075593,0
1689043204.1255925,0
1689043204.1755924,12
1689043204.2255886,45
1689043204.2755883,64
1689043204.325588,59
1689043204.375592,50
1689043204.4255917,44
1689043204.475592,41
1689043204.5255919,40
1689043204.5755868,36
1689043204.6255913,28
1689043204.6755884,20
1689043204.7255871,14
1689043204.7755868,10
1689043204.8255863,8
1689043204.8755915,6
1689043204.9095907,5
1689043204.959591,3
1689043205.0095913,9
1689043205.059586,39
1689043205.1095905,67
1689043205.1595867,67
1689043205.2095907,58
1689043205.2595859,51
1689043205.3095856,46
1689043205.3595865,46
1689043205.409586,45
1689043205.4595864,39
1689043205.5095859,31
1689043205.5595858,24
1689043205.60959,19
1689043205.659591,17
1689043205.7095857,15
1689043205.759591,22
1689043205.8095863,49
1689043205.8595846,70
1689043205.8925853,66
1689043205.943585,57
1689043205.9935844,46
1689043206.0425844,42
1689043206.0925891,44
1689043206.142585,46
1689043206.192585,40
1689043206.24259,32
1689043206.2925842,24
1689043206.3425884,18
1689043206.392585,15
1689043206.4425895,13
1689043206.4925847,21
1689043206.5425847,51
1689043206.5925891,81
1689043206.6425846,81
1689043206.6925836,69
1689043206.742584,58
1689043206.7925844,53
1689043206.8433676,53
1689043206.8793757,50
1689043206.9273722,44
1689043206.977372,35
1689043207.0263708,27
1689043207.0773706,21
1689043207.1263711,17
1689043207.1773756,15
1689043207.227375,14
1689043207.2773705,20
1689043207.326375,59
1689043207.3763752,90
1689043207.4273717,91
1689043207.4763749,81
1689043207.5273705,73
1689043207.5773711,65
1689043207.6263702,59
1689043207.6773705,55
1689043207.7273746,48
1689043207.7773702,38
1689043207.8273704,28
1689043207.8773694,20
1689043207.910369,16
1689043207.9603698,14
1689043208.0103738,12
1689043208.0603735,11
1689043208.109374,31
1689043208.16037,70
1689043208.2103689,78
1689043208.2603707,69
1689043208.3103728,60
1689043208.3593733,53
1689043208.4103682,46
1689043208.4603746,43
1689043208.5103705,37
1689043208.5593731,27
1689043208.609368,19
1689043208.6603696,12
1689043208.7103727,7
1689043208.7593687,4
1689043208.8103683,2
1689043208.8603675,0
1689043208.8933723,10
1689043208.948368,28
1689043208.998368,55
1689043209.048368,54
1689043209.104372,45
1689043209.1553679,40
1689043209.2053716,36
1689043209.2553678,32
1689043209.305368,30
1689043209.3553674,23
1689043209.405367,16
1689043209.4553673,10
1689043209.505368,6
1689043209.5553713,3
1689043209.6053684,2
1689043209.6553667,1
1689043209.7053711,0
1689043209.7543726,5
1689043209.805371,31
1689043209.855366,48
1689043209.8883667,41
1689043209.9383664,35
1689043209.9883666,29
1689043210.037366,26
1689043210.0913706,27
1689043210.1413705,27
1689043210.1913702,23
1689043210.2413654,17
1689043210.291367,12
1689043210.3413658,9
1689043210.391365,7
1689043210.4413695,6
1689043210.4913707,6
1689043210.5413697,9
1689043210.593366,30
1689043210.6413655,48
1689043210.6903656,43
1689043210.741369,32
1689043210.7913668,26
1689043210.841369,25
1689043210.8803647,29
1689043210.9443648,30
1689043210.9933689,25
1689043211.0443645,19
1689043211.0943685,15
1689043211.1443655,14
1689043211.1943653,14
1689043211.2443638,14
1689043211.2943647,28
1689043211.3443692,49
1689043211.3943694,52
1689043211.4443636,40
1689043211.494363,33
1689043211.5433676,29
1689043211.5943644,32
1689043211.644363,36
1689043211.693368,32
1689043211.744363,27
1689043211.7943625,22
1689043211.844363,20
1689043211.880363,20
1689043211.9263632,20
1689043211.977367,22
1689043212.026367,41
1689043212.0773673,61
1689043212.1273642,59
1689043212.1763628,50
1689043212.2263668,47
1689043212.2773623,44
1689043212.327362,43
1689043212.3773665,43
1689043212.4273663,40
1689043212.4773664,35
1689043212.5263622,31
1689043212.577362,28
1689043212.6273613,27
1689043212.6771266,26
1689043212.7272148,26
1689043212.7764611,40
1689043212.8264601,65
1689043212.8764594,72
1689043212.9146702,66
1689043212.9631338,63
1689043213.0131297,62
1689043213.0631342,60
1689043213.1241298,59
1689043213.1741335,57
1689043213.2241294,51
1689043213.2741337,45
1689043213.3241334,40
1689043213.374129,37
1689043213.4241421,34
1689043213.4741364,32
1689043213.5241368,30
1689043213.5741417,40
1689043213.6241357,66
1689043213.6741421,82
1689043213.7241416,80
1689043213.7741363,76
1689043213.8241417,74
1689043213.8741357,72
1689043213.9081361,69
1689043213.9581354,67
1689043214.0081372,62
1689043214.0581353,55
1689043214.1091363,47
1689043214.1581395,41
1689043214.2081354,37
1689043214.2581394,34
1689043214.3081357,30
1689043214.3581347,27
1689043214.4081357,30
1689043214.4581397,54
1689043214.5081406,77
1689043214.5581405,77
1689043214.6081357,69
1689043214.6581385,63
1689043214.708134,58
1689043214.7581336,56
1689043214.8081346,54
1689043214.8581383,48
1689043214.891139,40
1689043214.9411347,35
1689043214.9911351,28
1689043215.041136,24
1689043215.0911381,21
1689043215.141134,18
1689043215.191134,15
1689043215.2421346,19
1689043215.2921376,42
1689043215.3411381,66
1689043215.3911343,65
1689043215.4411347,55
1689043215.4911351,48
1689043215.5411332,45
1689043215.5921352,47
1689043215.6411333,47
1689043215.6911323,41
1689043215.7411325,34
1689043215.791138,27
1689043215.8411329,22
1689043215.8801322,19
1689043215.9271333,18
1689043215.9771333,22
1689043216.027133,45
1689043216.077132,68
1689043216.1272507,68
1689043216.1766837,59
1689043216.226742,51
1689043216.2767413,48
1689043216.326745,51
1689043216.3767638,51
1689043216.4267638,45
1689043216.4767623,38
1689043216.526759,30
1689043216.5769827,24
1689043216.6270633,21
1689043216.6770573,20
1689043216.7270575,28
1689043216.7770584,66
1689043216.827057,78
1689043216.8769987,74
1689043216.9111314,66
1689043216.9611313,61
1689043217.0111318,56
1689043217.0611312,55
1689043217.1111317,51
1689043217.1611323,44
1689043217.211131,36
1689043217.2607918,29
1689043217.3112466,24
1689043217.3609872,22
1689043217.4104953,21
