timestamp,bvp
1689045069.3055818,50
1689045069.35558,45
1689045069.405581,36
1689045069.4555805,25
1689045069.5055802,16
1689045069.5555854,9
1689045069.6055799,6
1689045069.65558,5
1689045069.7055798,5
1689045069.7555792,17
1689045069.805586,50
1689045069.8555796,78
1689045069.9055798,81
1689045069.9555786,71
1689045070.0055792,61
1689045070.0385857,53
1689045070.0885794,51
1689045070.1385832,48
1689045070.188579,39
1689045070.2385633,23
1689045070.2890882,12
1689045070.3390853,8
1689045070.3890834,6
1689045070.4390473,0
1689045070.4888296,0
1689045070.5388293,0
1689045070.5888286,0
1689045070.6388774,5
1689045070.688365,40
1689045070.7384768,69
1689045070.7885711,69
1689045070.838578,57
1689045070.888577,46
1689045070.938571,40
1689045070.9888737,40
1689045071.0252094,40
1689045071.0732045,38
1689045071.1232092,29
1689045071.1732047,20
1689045071.223209,10
1689045071.2732089,3
1689045071.3225803,0
1689045071.3725793,0
1689045071.422579,0
1689045071.472579,0
1689045071.522583,35
1689045071.572579,74
1689045071.6232233,82
1689045071.6724086,71
1689045071.722482,54
1689045071.772914,40
1689045071.82237,36
1689045071.8724844,36
1689045071.922734,34
1689045071.972789,27
1689045072.0227888,20
1689045072.0557928,16
1689045072.105789,16
1689045072.155794,16
1689045072.2057889,15
1689045072.2557926,13
1689045072.3057885,35
1689045072.3557923,72
1689045072.405793,89
1689045072.4557924,82
1689045072.505788,68
1689045072.5557883,59
1689045072.605788,57
1689045072.6557922,56
1689045072.7057877,50
1689045072.7557926,40
1689045072.8057885,29
1689045072.8557916,20
1689045072.9057877,17
1689045072.955787,22
1689045073.0057874,30
1689045073.0387871,46
1689045073.088398,67
1689045073.1389782,97
1689045073.1891985,102
1689045073.2386522,65
1689045073.288648,57
1689045073.3386478,53
1689045073.3886518,51
1689045073.4386475,50
1689045073.4886515,47
1689045073.538647,42
1689045073.5886512,39
1689045073.6386464,36
1689045073.6886764,34
1689045073.7384632,33
1689045073.7884624,31
1689045073.8384593,38
1689045073.8884585,54
1689045073.9384582,64
1689045073.988462,62
1689045074.0244572,56
1689045074.075458,52
1689045074.1254575,49
1689045074.1756685,47
1689045074.237321,45
1689045074.286325,41
1689045074.3363202,37
1689045074.3863206,33
1689045074.4363253,30
1689045074.4863214,29
1689045074.5363245,28
1689045074.5873199,28
1689045074.6380184,37
1689045074.6874175,53
1689045074.7364137,60
1689045074.7864127,55
1689045074.836414,49
1689045074.8864129,45
1689045074.9364173,43
1689045074.9864142,44
1689045075.025413,41
1689045075.088417,37
1689045075.1394124,32
1689045075.190056,28
1689045075.2394254,26
1689045075.2894258,25
1689045075.3394217,24
1689045075.3894258,25
1689045075.4394217,38
1689045075.489421,53
1689045075.540422,55
1689045075.5894208,49
1689045075.6394215,42
1689045075.6896677,38
1689045075.739378,38
1689045075.7893782,38
1689045075.839382,35
1689045075.8893828,31
1689045075.9393826,26
1689045075.9893808,22
1689045076.0253818,20
1689045076.075382,19
1689045076.1253822,18
1689045076.1753771,20
1689045076.2363777,35
1689045076.2873776,55
1689045076.3363814,58
1689045076.3863766,53
1689045076.4363768,46
1689045076.4863813,42
1689045076.5363774,43
1689045076.5863764,45
1689045076.6363769,44
1689045076.686377,43
1689045076.7367713,42
1689045076.7865052,41
1689045076.8365092,40
1689045076.8865044,39
1689045076.9365046,40
1689045076.986509,50
1689045077.0255053,65
1689045077.0725052,68
1689045077.1225042,64
1689045077.1725085,58
1689045077.222504,53
1689045077.2727163,51
1689045077.3227334,50
1689045077.3727283,47
1689045077.4227288,43
1689045077.4727323,40
1689045077.5227282,37
1689045077.5727282,35
1689045077.6227324,34
1689045077.6727324,33
1689045077.7227278,33
1689045077.7727287,40
1689045077.822728,55
1689045077.872785,64
1689045077.9227276,61
1689045077.9727318,56
1689045078.0227275,52
1689045078.0607316,50
1689045078.109727,49
1689045078.1587315,48
1689045078.2087266,46
1689045078.269731,41
1689045078.3197267,39
1689045078.3697312,37
1689045078.4197268,35
1689045078.4697325,33
1689045078.5197263,32
1689045078.5697262,31
1689045078.6197276,38
1689045078.6697311,50
1689045078.7197309,60
1689045078.7697303,59
1689045078.8197255,53
1689045078.8697302,49
1689045078.9197261,46
1689045078.9697268,45
1689045079.019726,43
1689045079.058725,40
1689045079.1057298,37
1689045079.1557267,33
1689045079.2057252,31
1689045079.2557297,30
1689045079.3067248,28
1689045079.3567255,27
1689045079.4067295,25
1689045079.4567254,25
1689045079.5067246,36
1689045079.5567248,50
1689045079.6067293,53
1689045079.656729,55
1689045079.7068582,43
1689045079.7565398,37
1689045079.8066723,37
1689045079.8566725,37
1689045079.9066725,33
1689045079.956673,25
1689045080.0066736,17
1689045080.0396724,12
1689045080.0951443,9
1689045080.1442893,8
1689045080.1944232,8
1689045080.2538738,6
1689045080.3038728,8
1689045080.353874,34
1689045080.403873,65
1689045080.4538734,72
1689045080.5038738,61
1689045080.5538723,46
1689045080.6040232,39
1689045080.6535206,40
1689045080.7035246,41
1689045080.7535207,39
1689045080.8041067,32
1689045080.8541021,26
1689045080.904106,22
1689045080.9541056,20
1689045081.0041058,18
1689045081.037101,16
1689045081.0931017,15
1689045081.1431005,32
1689045081.1930084,64
1689045081.2482653,80
1689045081.2952657,76
1689045081.346265,64
1689045081.395267,54
1689045081.4452698,50
1689045081.4962673,51
1689045081.5462666,49
1689045081.5962646,42
1689045081.6462648,36
1689045081.6959286,31
1689045081.745977,29
1689045081.7959769,28
1689045081.845977,28
1689045081.8959756,25
1689045081.9459724,30
1689045081.995972,55
1689045082.0289717,81
1689045082.0901084,82
1689045082.1394298,71
1689045082.18943,63
1689045082.2394345,60
1689045082.2894306,61
1689045082.3394294,59
1689045082.3894298,53
1689045082.4394295,45
1689045082.4894338,40
1689045082.539434,35
1689045082.58943,32
1689045082.6394296,29
1689045082.6894298,25
1689045082.7394297,26
1689045082.7894359,45
1689045082.839429,74
1689045082.8894305,80
1689045082.9394352,70
1689045082.9894295,59
1689045083.0254295,52
1689045083.075433,50
1689045083.125429,50
1689045083.1754289,47
1689045083.2254283,40
1689045083.275429,32
1689045083.3254287,27
1689045083.3754327,23
1689045083.4254277,20
1689045083.4754326,17
1689045083.5254323,14
1689045083.5754323,14
1689045083.6254325,39
1689045083.67543,68
1689045083.7254276,74
1689045083.775427,65
1689045083.8259654,54
1689045083.8759649,47
1689045083.9259658,46
1689045083.975965,46
1689045084.0259645,42
1689045084.075969,35
1689045084.125965,28
1689045084.1759691,23
1689045084.2379644,20
1689045084.2869685,18
1689045084.3369646,17
1689045084.3869684,15
1689045084.438969,29
1689045084.4869683,59
1689045084.5369682,75
1689045084.5869634,67
1689045084.6368766,54
1689045084.6870449,45
1689045084.7370455,43
1689045084.7880445,44
1689045084.8380404,41
1689045084.8880446,34
1689045084.9380405,26
1689045084.9880397,20
1689045085.026045,17
1689045085.0740402,16
1689045085.124044,14
1689045085.1740396,12
1689045085.2238069,17
1689045085.276176,41
1689045085.3261714,61
1689045085.3761704,71
1689045085.426175,62
1689045085.4761705,45
1689045085.52617,40
1689045085.575915,41
1689045085.6260774,40
1689045085.6760755,32
1689045085.7260764,22
1689045085.7760775,13
1689045085.82608,8
1689045085.8760767,5
1689045085.926076,3
1689045085.976076,0
1689045086.0270755,4
1689045086.076075,32
1689045086.1270747,60
1689045086.17608,63
1689045086.2380755,53
1689045086.2880793,40
1689045086.338075,37
1689045086.387681,40
1689045086.4376817,40
1689045086.487681,37
1689045086.5376768,32
1689045086.5876808,30
1689045086.638676,31
1689045086.687743,33
1689045086.7376764,33
1689045086.789676,42
1689045086.8396769,67
1689045086.8876808,86
1689045086.9376802,83
1689045086.98768,72
1689045087.0266798,63
1689045087.0896754,60
1689045087.139675,60
1689045087.1896796,55
1689045087.2396796,47
1689045087.2896798,40
1689045087.3396754,36
1689045087.38968,33
1689045087.439675,30
1689045087.489679,27
1689045087.539675,34
1689045087.589679,59
1689045087.640679,77
1689045087.6906788,74
1689045087.74068,64
1689045087.7906756,55
1689045087.8406737,50
1689045087.890679,47
1689045087.9406738,44
1689045087.9906733,37
1689045088.0266747,27
1689045088.0766752,22
1689045088.1266737,16
1689045088.1766744,13
1689045088.237675,12
1689045088.2876778,10
1689045088.3416731,23
1689045088.3906775,51
1689045088.4406734,66
1689045088.4906776,62
1689045088.5406737,53
1689045088.5906725,44
1689045088.6406734,40
1689045088.690673,40
1689045088.7406726,38
1689045088.7906735,32
1689045088.8406773,26
1689045088.8906767,22
1689045088.940673,20
1689045088.9906766,20
1689045089.0266721,19
1689045089.0736725,19
1689045089.1236777,31
1689045089.1736722,58
1689045089.2236764,79
1689045089.2736776,80
1689045089.323676,76
1689045089.373672,71
1689045089.4236755,64
1689045089.4736717,62
1689045089.5236764,59
1689045089.5736709,54
1689045089.6236756,50
1689045089.6736708,47
1689045089.7233922,43
1689045089.7734582,40
1689045089.824062,36
1689045089.8740895,33
1689045089.9240942,31
1689045089.9740906,38
1689045090.024094,60
1689045090.057094,79
1689045090.1070895,80
1689045090.1570961,74
1689045090.2070892,67
1689045090.2567878,59
1689045090.3067884,54
1689045090.3567884,51
1689045090.4067938,45
1689045090.456792,38
1689045090.5067878,32
1689045090.556792,27
1689045090.6067882,24
1689045090.656792,20
1689045090.7067878,17
1689045090.7567875,13
1689045090.8067913,8
1689045090.8567915,5
1689045090.9067876,20
1689045090.9569273,49
1689045091.0069642,63
1689045091.0409636,58
1689045091.0909643,52
1689045091.1409636,43
1689045091.191015,37
1689045091.240817,36
1689045091.2904205,35
1689045091.3404155,30
1689045091.3904164,25
1689045091.4405196,20
1689045091.4905195,18
1689045091.5405238,16
1689045091.5905185,16
1689045091.6405232,15
1689045091.6905231,15
1689045091.7405183,13
1689045091.790518,25
1689045091.840523,56
1689045091.8905187,79
1689045091.9405231,81
1689045091.9915192,75
1689045092.0265226,66
1689045092.0735178,58
1689045092.1235223,51
1689045092.1735184,51
1689045092.2235181,49
1689045092.273518,46
1689045092.3235178,43
1689045092.3735173,40
1689045092.423522,36
1689045092.473522,33
1689045092.5232837,32
1689045092.5732799,29
1689045092.6240156,26
1689045092.6740193,27
1689045092.7240148,47
1689045092.7735856,71
1689045092.8237398,75
1689045092.8737357,65
1689045092.9237394,56
1689045092.9741225,47
1689045093.0241516,40
1689045093.0580456,35
1689045093.107716,30
1689045093.1577168,21
1689045093.2075238,11
1689045093.2573552,5
1689045093.3073518,1
1689045093.3573503,0
1689045093.4073503,0
1689045093.457351,0
1689045093.507355,0
1689045093.5573528,0
1689045093.6073549,10
1689045093.6573546,46
1689045093.7073503,74
1689045093.75735,76
1689045093.80735,67
1689045093.8573503,57
1689045093.9073544,51
1689045093.9573495,52
1689045094.0073018,55
1689045094.0409658,54
1689045094.0909612,50
1689045094.140962,45
1689045094.1909618,41
1689045094.2409654,40
1689045094.290966,38
1689045094.340966,36
1689045094.3909655,33
1689045094.441967,29
1689045094.4909604,40
1689045094.540965,69
1689045094.5909612,87
1689045094.640961,82
1689045094.690961,73
1689045094.7409656,65
1689045094.79096,57
1689045094.8409648,51
1689045094.89096,43
1689045094.9409647,34
1689045094.9909647,23
1689045095.0269616,15
1689045095.0739594,11
1689045095.12396,5
1689045095.1739643,0
1689045095.22396,0
1689045095.27396,0
1689045095.3240602,0
1689045095.3739636,0
1689045095.4239593,30
1689045095.4739597,64
1689045095.5239587,69
1689045095.5739639,60
1689045095.6239638,48
1689045095.6739635,39
1689045095.7239592,36
1689045095.773963,38
1689045095.8239594,36
1689045095.8739636,29
1689045095.9239583,23
1689045095.9739628,20
1689045096.023963,21
1689045096.0579627,27
1689045096.1079628,29
1689045096.1579587,31
1689045096.2079632,30
1689045096.257958,43
1689045096.3079622,77
1689045096.3579576,99
1689045096.407962,95
1689045096.457962,84
1689045096.5079622,75
1689045096.557958,68
1689045096.607962,64
1689045096.6579573,60
1689045096.7079616,52
1689045096.7579575,42
1689045096.8079617,33
1689045096.8579566,25
1689045096.9079614,19
1689045096.957957,11
1689045097.0079575,3
1689045097.0409617,0
1689045097.0909572,0
1689045097.140961,5
1689045097.190961,46
1689045097.2409575,70
1689045097.2909558,63
1689045097.3409605,47
1689045097.3909557,34
1689045097.4409556,26
1689045097.4909604,26
1689045097.5409555,26
1689045097.59096,19
1689045097.6409602,8
1689045097.6909559,0
1689045097.7409558,0
1689045097.7909553,0
1689045097.8409595,0
1689045097.8909557,0
1689045097.940955,0
1689045097.9909594,19
1689045098.0269544,70
1689045098.0749593,103
1689045098.1249552,108
1689045098.17496,97
1689045098.2249553,62
1689045098.2749543,57
1689045098.3249545,55
1689045098.3749554,53
1689045098.4249547,49
1689045098.4749587,45
1689045098.5249538,42
1689045098.5749547,40
1689045098.6249545,40
1689045098.6749542,40
1689045098.7249584,38
1689045098.7749538,37
1689045098.824439,46
1689045098.875077,59
1689045098.925077,67
1689045098.975081,63
1689045099.0250766,57
1689045099.0580807,52
1689045099.1080766,50
1689045099.1580808,49
1689045099.2080758,46
1689045099.2580805,41
1689045099.3080802,35
1689045099.358076,27
1689045099.4080763,22
1689045099.4580803,18
1689045099.508076,15
1689045099.5580804,12
1689045099.6080759,9
1689045099.6580749,15
1689045099.70808,37
1689045099.7580757,54
1689045099.80808,54
1689045099.85808,46
1689045099.9080756,40
1689045099.957962,37
1689045100.0081408,38
1689045100.0404997,39
1689045100.090555,37
1689045100.1405544,31
1689045100.190559,26
1689045100.2405548,22
1689045100.290559,22
1689045100.3405547,24
1689045100.3905542,27
1689045100.4405587,33
1689045100.4905543,49
1689045100.5405543,68
1689045100.590554,72
1689045100.6405566,68
1689045100.6905544,63
1689045100.7415547,59
1689045100.791558,57
1689045100.8415577,56
1689045100.891554,53
1689045100.941553,47
1689045100.9915543,43
1689045101.0275574,40
1689045101.0746014,39
1689045101.1245975,38
1689045101.1746128,36
1689045101.2246027,35
1689045101.2745972,46
1689045101.3246017,60
1689045101.3746014,63
1689045101.4246008,58
1689045101.474601,51
1689045101.5245974,45
1689045101.574602,41
1689045101.6245973,40
1689045101.6745965,37
1689045101.7245955,32
1689045101.7746015,25
1689045101.8246021,20
1689045101.8746004,16
1689045101.9245975,15
1689045101.9746017,15
1689045102.0245998,15
1689045102.0575948,27
1689045102.1075957,41
1689045102.1576002,56
1689045102.2075958,57
1689045102.2575948,50
1689045102.3075953,44
1689045102.357596,40
1689045102.407595,40
1689045102.4575944,40
1689045102.5080657,38
1689045102.5576813,34
1689045102.6076777,30
1689045102.6576817,28
1689045102.7076766,27
1689045102.7576766,27
1689045102.8076773,26
1689045102.857681,32
1689045102.9076765,49
1689045102.9576812,64
1689045103.0076811,66
1689045103.0416822,62
1689045103.0916805,59
1689045103.1416762,56
1689045103.1916807,56
1689045103.2416806,56
1689045103.2916806,55
1689045103.3416755,51
1689045103.3916802,48
1689045103.4416804,44
1689045103.49168,41
1689045103.5416756,40
1689045103.59168,38
1689045103.6416798,36
1689045103.691675,34
1689045103.7416756,40
1689045103.7916794,56
1689045103.8416755,64
1689045103.8916795,61
1689045103.9416769,55
1689045103.9916792,49
1689045104.0276792,43
1689045104.0746768,40
1689045104.1246789,38
1689045104.174675,34
1689045104.2246788,28
1689045104.2746742,24
1689045104.3246787,21
1689045104.3746786,19
1689045104.4246788,18
1689045104.474675,18
1689045104.5246744,17
1689045104.5746741,16
1689045104.6246784,25
1689045104.6746736,45
1689045104.7246735,59
1689045104.774678,58
1689045104.8246782,54
1689045104.874673,49
1689045104.9246736,45
1689045104.974674,45
1689045105.0246773,44
1689045105.0586774,41
1689045105.1086745,38
1689045105.1586726,34
1689045105.2086775,32
1689045105.258673,30
1689045105.308673,29
1689045105.3586726,28
1689045105.4086728,26
1689045105.458677,25
1689045105.5086765,31
1689045105.5586784,48
1689045105.6086726,61
1689045105.6586764,59
1689045105.7082393,56
1689045105.759243,53
1689045105.8082438,51
1689045105.858239,49
1689045105.908239,46
1689045105.9582396,43
1689045106.008238,40
1689045106.041239,38
1689045106.0912428,36
1689045106.1412382,34
1689045106.192238,32
1689045106.2412393,30
1689045106.2912383,27
1689045106.3421462,29
1689045106.3912697,42
1689045106.4412637,57
1689045106.4912682,57
1689045106.5412636,50
1689045106.5912676,43
1689045106.6412678,40
1689045106.691263,37
1689045106.7412677,37
1689045106.7912676,35
1689045106.8412678,30
1689045106.891267,24
1689045106.9412632,19
1689045106.9912632,16
1689045107.0272632,15
1689045107.0742674,15
1689045107.124262,14
1689045107.1742668,14
1689045107.2242632,20
1689045107.2742665,41
1689045107.3242664,60
1689045107.3742633,59
1689045107.4242623,52
1689045107.4742615,44
1689045107.5242622,41
1689045107.5742662,40
1689045107.6242661,40
1689045107.6752682,37
1689045107.7242658,32
1689045107.774261,28
1689045107.824262,26
1689045107.874266,25
1689045107.9242613,27
1689045107.9742656,29
1689045108.0242667,30
1689045108.058266,40
1689045108.1082613,54
1689045108.158261,71
1689045108.2082603,73
1689045108.258261,68
1689045108.3082647,64
1689045108.35826,59
1689045108.4082644,57
1689045108.4582644,55
1689045108.5082803,51
1689045108.5582604,46
1689045108.6082642,42
1689045108.6582596,40
1689045108.7082608,38
1689045108.7722642,35
1689045108.8222604,32
1689045108.872263,29
1689045108.92226,26
1689045108.9722636,34
1689045109.0222595,52
1689045109.0552595,59
1689045109.1052637,56
1689045109.1552637,47
1689045109.2053325,40
1689045109.255259,35
1689045109.305263,33
1689045109.3552587,33
1689045109.405263,30
1689045109.455259,24
1689045109.5052629,17
1689045109.5552585,13
1689045109.6052585,10
1689045109.6552587,10
1689045109.7052577,11
1689045109.7556167,12
1689045109.805392,12
1689045109.8562236,29
1689045109.9052272,58
1689045109.9552233,71
1689045110.0062225,66
1689045110.0392227,58
1689045110.090223,53
1689045110.139227,49
1689045110.1902223,50
1689045110.2402225,51
1689045110.2892227,48
1689045110.339222,43
1689045110.3892224,39
1689045110.4392226,37
1689045110.490222,35
1689045110.5392263,35
1689045110.5892224,36
1689045110.6412213,38
1689045110.691222,47
1689045110.7402215,65
1689045110.789226,75
1689045110.8402212,71
1689045110.8892224,66
1689045110.9402215,61
1689045110.9902215,56
1689045111.0282207,54
1689045111.0732217,51
1689045111.1222208,47
1689045111.1722207,42
1689045111.2232256,38
1689045111.2722256,34
1689045111.3232226,30
1689045111.3722253,25
1689045111.4222207,20
1689045111.47322,15
1689045111.5222208,11
1689045111.5732214,16
1689045111.6222246,43
1689045111.673225,57
1689045111.72322,53
1689045111.7722242,45
1689045111.8222203,38
1689045111.872225,33
1689045111.9222243,32
1689045111.9722204,33
1689045112.0232193,30
1689045112.0552802,24
1689045112.106224,21
1689045112.1562235,17
1689045112.2052233,15
1689045112.2552195,15
1689045112.3052197,14
1689045112.35622,12
1689045112.4052188,13
1689045112.4562187,33
1689045112.5052228,62
1689045112.5552192,72
1689045112.605223,65
1689045112.6552181,57
1689045112.7052183,52
1689045112.7552228,50
1689045112.8062184,52
1689045112.8552225,51
1689045112.9062223,47
1689045112.9562185,41
1689045113.0062175,38
1689045113.0402222,37
1689045113.0892184,36
1689045113.1392174,37
1689045113.1902173,38
1689045113.2402177,40
1689045113.2912176,53
1689045113.3412178,69
1689045113.3892176,72
1689045113.4392173,65
1689045113.489221,59
1689045113.5392175,54
1689045113.5892212,52
1689045113.6402214,51
1689045113.6902323,49
1689045113.7402163,44
1689045113.7892163,39
1689045113.8392172,35
1689045113.890216,32
1689045113.939222,28
1689045113.990218,24
1689045114.0292177,19
1689045114.0722206,17
1689045114.1232164,29
1689045114.1722205,50
1689045114.2232156,58
1689045114.2732205,50
1689045114.3222203,42
1689045114.3722153,36
1689045114.423217,35
1689045114.4732153,37
1689045114.5232441,35
1689045114.5722156,30
1689045114.6222198,23
1689045114.673215,18
1689045114.722216,14
1689045114.7722154,14
1689045114.8222153,16
1689045114.8732147,17
1689045114.9222205,30
1689045114.9722147,54
1689045115.0222187,66
1689045115.056214,62
1689045115.1062148,55
1689045115.1562145,45
1689045115.2072158,41
1689045115.2562184,41
1689045115.3062181,46
1689045115.3562183,46
1689045115.407214,40
1689045115.4572136,37
1689045115.5062184,37
1689045115.5572135,40
1689045115.6062198,40
1689045115.656214,42
1689045115.707218,54
1689045115.7569482,71
1689045115.8062418,74
1689045115.8569622,68
1689045115.9069624,62
1689045115.9569623,58
1689045116.006962,54
1689045116.0399628,52
1689045116.095962,49
1689045116.1459575,43
1689045116.195962,36
1689045116.2569613,30
1689045116.306988,24
1689045116.3569925,17
1689045116.4069872,9
1689045116.4569876,3
1689045116.506992,10
1689045116.5568821,39
1689045116.606222,58
1689045116.6565495,55
1689045116.7065449,47
1689045116.7565491,41
1689045116.8065505,38
1689045116.85726,39
1689045116.9072604,39
1689045116.9562645,35
1689045117.0062602,29
1689045117.0392654,24
1689045117.0952642,22
1689045117.1452641,21
1689045117.1952593,21
1689045117.2562642,21
1689045117.3062596,39
1689045117.356259,62
1689045117.4062598,68
1689045117.4562638,62
1689045117.506259,56
1689045117.5562634,51
1689045117.6062634,50
1689045117.6562643,51
1689045117.7062633,49
1689045117.7562587,44
1689045117.806259,41
1689045117.856263,41
1689045117.906259,41
1689045117.9562635,41
1689045118.0062597,40
1689045118.0402625,40
1689045118.0902631,45
1689045118.139258,61
1689045118.1892586,70
1689045118.2392578,67
1689045118.289262,62
1689045118.3392587,57
1689045118.3892577,52
1689045118.439262,48
1689045118.4892619,45
1689045118.5392153,40
1689045118.5902114,34
1689045118.640211,29
1689045118.6902103,25
1689045118.7532108,21
1689045118.8042104,15
1689045118.8532114,12
1689045118.903211,10
1689045118.9542115,13
1689045119.0032105,34
1689045119.0362105,56
1689045119.0862143,60
1689045119.1362104,55
1689045119.1862104,48
1689045119.2392094,42
1689045119.2892141,40
1689045119.33921,40
1689045119.389209,39
1689045119.4402103,34
1689045119.4892137,28
1689045119.5392153,24
1689045119.5902097,23
1689045119.640209,23
1689045119.6892147,23
1689045119.7402093,23
1689045119.7912133,23
1689045119.8422134,35
1689045119.889209,57
1689045119.9392083,70
1689045119.9898908,68
1689045120.0288997,63
1689045120.0920918,58
1689045120.1422517,54
1689045120.192255,52
1689045120.2422516,49
1689045120.2922552,45
1689045120.3432548,43
1689045120.3922548,43
1689045120.4432561,42
1689045120.4922547,40
1689045120.542251,38
1689045120.5922544,36
1689045120.642255,34
1689045120.692254,38
1689045120.742254,52
1689045120.7922494,65
1689045120.8422506,64
1689045120.8922539,58
1689045120.94225,52
1689045120.9922538,47
1689045121.02925,43
1689045121.0762537,40
1689045121.1262553,36
1689045121.1762538,30
1689045121.2262487,21
1689045121.276249,14
1689045121.3268054,10
1689045121.3768008,9
1689045121.426801,7
1689045121.4768007,5
1689045121.5268059,2
1689045121.5768054,0
1689045121.6267996,16
1689045121.6768,47
1689045121.7268004,64
1689045121.7768054,59
1689045121.8268,50
1689045121.8767993,41
1689045121.926806,38
1689045121.976799,39
1689045122.0268037,38
1689045122.0597987,32
1689045122.1098344,28
1689045122.1598868,22
1689045122.209234,19
1689045122.2592332,19
1689045122.3092372,21
1689045122.3592372,24
1689045122.4092371,28
1689045122.459433,38
1689045122.5097952,61
1689045122.559795,80
1689045122.6097987,79
1689045122.6597943,71
1689045122.7097983,64
1689045122.7597942,59
1689045122.8097937,57
1689045122.8597982,56
1689045122.9097939,51
1689045122.9597938,46
1689045123.0097978,43
1689045123.042798,41
1689045123.0927932,40
1689045123.1427932,39
1689045123.1923947,37
1689045123.2429664,34
1689045123.2929668,31
1689045123.3429668,39
1689045123.392971,56
1689045123.4429705,62
1689045123.4929664,55
1689045123.5429664,45
1689045123.5929656,38
1689045123.642966,32
1689045123.692966,30
1689045123.7429652,29
1689045123.7923474,25
1689045123.8429859,19
1689045123.8929815,13
1689045123.9429858,9
1689045123.9929862,7
1689045124.0289857,6
1689045124.0769856,6
1689045124.1269805,5
1689045124.1769817,5
1689045124.226981,24
1689045124.2769864,57
1689045124.3269804,72
1689045124.3769848,66
1689045124.426981,56
1689045124.4769847,48
1689045124.526981,45
1689045124.5769856,47
1689045124.6269798,47
1689045124.6769845,44
1689045124.7269847,40
1689045124.7769797,37
1689045124.8269818,35
1689045124.8769848,33
1689045124.926981,33
1689045124.97698,34
1689045125.02698,39
1689045125.0599797,57
1689045125.1099837,71
1689045125.159984,77
1689045125.209984,72
1689045125.259979,65
1689045125.3099837,60
1689045125.3599787,56
1689045125.4092464,54
1689045125.4596167,50
1689045125.50983,44
1689045125.5598297,38
1689045125.6098337,32
1689045125.659829,28
1689045125.7098336,23
1689045125.7598295,19
1689045125.8098335,15
1689045125.8598337,9
1689045125.909837,5
1689045125.959829,21
1689045126.009828,50
1689045126.043833,62
1689045126.0988288,56
1689045126.148833,48
1689045126.1988344,40
1689045126.256829,35
1689045126.30683,36
1689045126.3568277,37
1689045126.4068346,33
1689045126.4568324,25
1689045126.5068324,18
1689045126.5568283,14
1689045126.606832,15
1689045126.6568327,19
1689045126.7068279,23
1689045126.7568316,23
1689045126.806834,34
1689045126.8568933,61
1689045126.9068272,78
1689045126.9568272,75
1689045127.0068314,67
1689045127.0598276,59
1689045127.1098268,52
1689045127.1598265,52
1689045127.2098274,51
1689045127.259827,48
1689045127.309831,44
1689045127.359826,42
1689045127.4098308,42
1689045127.459826,41
1689045127.509826,39
1689045127.559826,37
1689045127.6098304,36
1689045127.6598258,45
1689045127.7098277,63
1689045127.7598262,73
1689045127.8098252,68
1689045127.8598304,61
1689045127.9098308,55
1689045127.959832,50
1689045128.00983,48
1689045128.0438297,45
1689045128.0938256,41
1689045128.1438258,35
1689045128.1938252,28
1689045128.2438254,22
1689045128.2938294,17
1689045128.3438249,11
1689045128.393825,6
1689045128.443826,3
1689045128.4938242,1
1689045128.543829,4
1689045128.5938294,30
1689045128.6438246,59
1689045128.6938257,62
1689045128.74383,52
1689045128.7938302,41
1689045128.84383,33
1689045128.8938234,32
1689045128.9438245,32
1689045128.9938235,27
1689045129.0298235,21
1689045129.0768244,18
1689045129.126828,15
1689045129.1768284,14
1689045129.226831,13
1689045129.2768276,14
1689045129.326823,16
1689045129.3768232,22
1689045129.4268274,48
1689045129.4768229,82
1689045129.5264575,92
1689045129.5771377,86
1689045129.6271336,78
1689045129.6771328,71
1689045129.726394,66
1689045129.776604,63
1689045129.8269854,57
1689045129.8769228,51
1689045129.926923,46
1689045129.9769232,42
1689045130.0269191,40
1689045130.0609188,38
1689045130.1109228,37
1689045130.1609244,34
1689045130.2120192,32
1689045130.2610192,41
1689045130.3110151,59
1689045130.3610196,64
1689045130.4110208,56
1689045130.461014,47
1689045130.5110147,41
1689045130.5610752,36
1689045130.611019,33
1689045130.6610188,32
1689045130.7110186,25
1689045130.761019,18
1689045130.811018,11
1689045130.8610132,7
1689045130.9110138,4
1689045130.9610136,3
1689045131.0110166,2
1689045131.0440137,1
1689045131.094014,5
1689045131.144014,35
1689045131.1940176,67
1689045131.2440193,71
1689045131.2940123,61
1689045131.3440132,50
1689045131.3940172,42
1689045131.444013,43
1689045131.4940171,46
1689045131.5440173,44
1689045131.5940135,38
1689045131.644012,31
1689045131.6940167,29
1689045131.7440128,32
1689045131.7940166,37
1689045131.8440127,38
1689045131.8940187,38
1689045131.9440124,52
1689045131.9940119,74
1689045132.0300114,81
1689045132.0770113,78
1689045132.1270125,69
1689045132.1770124,62
1689045132.2270122,57
1689045132.2770116,56
1689045132.3270116,55
1689045132.3770156,51
1689045132.4270158,46
1689045132.4770157,42
1689045132.5270116,40
1689045132.5770106,39
1689045132.6270106,38
1689045132.677011,36
1689045132.7270114,33
1689045132.7770107,40
1689045132.8270147,58
1689045132.8770099,67
1689045132.9270103,62
1689045132.97701,52
1689045133.0270145,44
1689045133.0610144,38
1689045133.1110158,35
1689045133.1610146,33
1689045133.2110102,28
1689045133.261014,23
1689045133.3110101,16
1689045133.3610141,12
1689045133.411009,9
1689045133.4607332,8
1689045133.5108194,7
1689045133.5608184,5
1689045133.6108139,3
1689045133.6608198,15
1689045133.7108142,49
1689045133.760818,71
1689045133.8108137,67
1689045133.8608174,57
1689045133.9108138,48
1689045133.9608126,43
1689045134.0108187,44
1689045134.0438132,45
1689045134.0938125,44
1689045134.1438131,40
1689045134.193817,38
1689045134.2438173,37
1689045134.2938123,36
1689045134.3438127,36
1689045134.3938165,35
1689045134.4438124,33
1689045134.4939847,40
1689045134.5436437,62
1689045134.5936437,77
1689045134.6436481,76
1689045134.6936438,70
1689045134.743648,64
1689045134.793644,59
1689045134.843644,57
1689045134.893648,56
1689045134.9436438,52
1689045134.99365,47
1689045135.0296435,43
1689045135.0776439,41
1689045135.1276474,39
1689045135.1776428,37
1689045135.2276475,35
1689045135.2776434,32
1689045135.3276472,29
1689045135.377643,37
1689045135.4276428,52
1689045135.4776468,56
1689045135.527643,54
1689045135.5776436,34
1689045135.6276467,20
1689045135.6776416,12
1689045135.7276468,13
1689045135.7776425,13
1689045135.8276415,4
1689045135.877647,0
1689045135.9276426,0
1689045135.9776418,0
1689045136.0276463,0
1689045136.0606458,0
1689045136.1106412,0
1689045136.160646,0
1689045136.2106457,0
1689045136.260642,32
1689045136.3106458,95
1689045136.3606408,110
1689045136.4106414,67
1689045136.4606454,58
1689045136.5106428,52
1689045136.5606453,50
1689045136.6106453,50
1689045136.6606402,48
1689045136.710645,43
1689045136.760647,39
1689045136.81064,36
1689045136.8606405,35
1689045136.910645,38
1689045136.9606402,40
1689045137.0106404,41
1689045137.0436404,47
1689045137.09364,57
1689045137.143644,73
1689045137.1936398,75
1689045137.2436397,70
1689045137.2936437,64
1689045137.343644,59
1689045137.3936443,55
1689045137.4436395,53
1689045137.4936395,50
1689045137.5434227,44
1689045137.5934231,40
1689045137.6433098,37
1689045137.6943138,34
1689045137.7573094,30
1689045137.8073137,25
1689045137.857309,21
1689045137.9073086,16
1689045137.957309,26
1689045138.0073092,47
1689045138.041313,55
1689045138.096309,49
1689045138.1463084,40
1689045138.196309,34
1689045138.257309,30
1689045138.3073094,29
1689045138.3573086,29
1689045138.4073124,24
1689045138.4573085,18
1689045138.507312,13
1689045138.5573125,11
1689045138.6073122,10
1689045138.6573074,10
1689045138.707307,10
1689045138.757308,10
1689045138.8073082,17
1689045138.8603122,46
1689045138.9103115,73
1689045138.9603088,74
1689045139.0103114,66
1689045139.0443113,57
1689045139.0943131,54
1689045139.1443117,52
1689045139.194307,53
1689045139.2443073,50
1689045139.294307,44
1689045139.3443062,39
1689045139.3943064,36
1689045139.4443061,35
1689045139.4943123,35
1689045139.544311,36
1689045139.5943062,35
1689045139.6443126,40
1689045139.6943064,58
1689045139.7450478,73
1689045139.7945545,72
1689045139.8451526,65
1689045139.8950768,59
1689045139.9447095,54
1689045139.9949687,52
1689045140.0310633,50
1689045140.0777292,48
1689045140.1281245,42
1689045140.1777763,38
1689045140.2280843,33
1689045140.277785,30
1689045140.3271906,26
1689045140.3772972,21
1689045140.4276514,14
1689045140.4774528,9
1689045140.5281005,17
1689045140.577704,43
1689045140.627397,59
1689045140.6776648,54
1689045140.7275746,43
1689045140.777907,35
1689045140.8277516,30
1689045140.8780253,31
1689045140.9272957,32
1689045140.9778886,29
1689045141.0278838,22
1689045141.0608842,15
1689045141.1108885,12
1689045141.1608887,10
1689045141.210884,10
1689045141.2668884,10
1689045141.316883,10
1689045141.370888,23
1689045141.4198837,53
1689045141.4698887,73
1689045141.5198877,69
1689045141.5698826,58
1689045141.6198874,48
1689045141.6698883,44
1689045141.7193844,48
1689045141.769384,51
1689045141.8193843,49
1689045141.8698583,43
1689045141.919858,38
1689045141.9698577,36
1689045142.0193706,36
1689045142.052814,38
1689045142.102308,38
1689045142.1528108,45
1689045142.2024872,65
1689045142.2583926,78
1689045142.3085697,73
1689045142.3591263,65
1689045142.409126,59
1689045142.4591222,55
1689045142.509126,53
1689045142.5591214,50
1689045142.6091259,45
1689045142.6591258,40
1689045142.7091215,35
1689045142.759122,32
1689045142.8091223,29
1689045142.8581684,25
1689045142.9084296,19
1689045142.9585123,17
1689045143.0090222,34
1689045143.0430222,52
1689045143.092026,54
1689045143.1420226,46
1689045143.1920261,39
1689045143.242026,32
1689045143.292022,31
1689045143.3420227,32
1689045143.3920221,32
1689045143.4420216,27
1689045143.4920256,23
1689045143.542022,20
1689045143.5920208,19
1689045143.6420255,19
1689045143.6920285,18
1689045143.7430248,20
1689045143.7930272,40
1689045143.8420215,63
1689045143.892025,67
1689045143.9420214,59
1689045143.9920247,49
1689045144.03102,43
1689045144.076025,42
1689045144.1260207,43
1689045144.1760204,42
1689045144.2260244,39
1689045144.2760203,34
1689045144.3260193,33
1689045144.3760242,34
1689045144.4260242,35
1689045144.4760191,35
1689045144.5260236,34
1689045144.576019,44
1689045144.6260238,69
1689045144.6760194,72
1689045144.7260194,67
1689045144.7760236,62
1689045144.826019,57
1689045144.8760235,54
1689045144.9260232,53
1689045144.976019,50
1689045145.0260234,45
1689045145.059023,40
1689045145.1090188,39
1689045145.15902,37
1689045145.2090182,36
1689045145.259031,34
1689045145.3086133,33
1689045145.3583748,40
1689045145.4083712,56
1689045145.458375,60
1689045145.5083747,53
1689045145.5583744,45
1689045145.608371,38
1689045145.6583316,32
1689045145.708331,30
1689045145.7583349,30
1689045145.8083305,25
1689045145.8583355,20
1689045145.90833,15
1689045145.9583309,11
1689045146.0083346,10
1689045146.0413303,10
1689045146.0913348,10
1689045146.1413302,12
1689045146.1933343,29
1689045146.2413304,54
1689045146.291334,64
1689045146.3413303,57
1689045146.3918731,48
1689045146.4418743,43
1689045146.4918745,39
1689045146.5418744,40
1689045146.5918741,40
1689045146.6418786,35
1689045146.6918736,29
1689045146.7418756,25
1689045146.7918785,25
1689045146.841874,27
1689045146.8918781,29
1689045146.943874,31
1689045146.9938736,45
1689045147.0308788,66
1689045147.0758739,72
1689045147.1258783,69
1689045147.1758735,63
1689045147.2258775,57
1689045147.2758732,55
1689045147.3258734,56
1689045147.3758733,54
1689045147.4258776,50
1689045147.475873,46
1689045147.525877,43
1689045147.5758727,41
1689045147.6258724,40
1689045147.6758728,40
1689045147.7258766,38
1689045147.7758768,40
1689045147.8258789,56
1689045147.8758714,65
1689045147.9258764,64
1689045147.975872,59
1689045148.025873,54
1689045148.0588763,49
1689045148.108872,47
1689045148.1588762,46
1689045148.2088718,44
1689045148.2588713,40
1689045148.3088717,36
1689045148.3588772,33
1689045148.4088755,32
1689045148.458876,30
1689045148.5088713,29
1689045148.5588753,27
1689045148.6088712,26
1689045148.6588714,38
1689045148.708871,54
1689045148.758877,57
1689045148.8088758,49
1689045148.8588767,40
1689045148.9088714,35
1689045148.9588747,32
1689045149.00887,31
1689045149.0428696,30
1689045149.0978744,26
1689045149.1478746,20
1689045149.1978748,14
1689045149.2588742,10
1689045149.3088753,8
1689045149.358876,7
1689045149.40887,6
1689045149.4588742,4
1689045149.5088737,20
1689045149.558869,48
1689045149.6088738,60
1689045149.6588697,52
1689045149.7088695,40
1689045149.7588737,31
1689045149.8088686,28
1689045149.858869,32
1689045149.9088693,33
1689045149.9588687,29
1689045150.0088732,23
1689045150.042869,19
1689045150.0928726,18
1689045150.142869,18
1689045150.1928687,20
1689045150.247868,23
1689045150.2968724,39
1689045150.3448722,65
1689045150.3948672,78
1689045150.4448676,73
1689045150.494872,63
1689045150.5448685,55
1689045150.594872,53
1689045150.6448677,55
1689045150.6948717,54
1689045150.7708735,46
1689045150.8208668,43
1689045150.8708715,42
1689045150.9208717,42
1689045150.9708664,40
1689045151.0210834,39
1689045151.0539248,42
1689045151.10327,51
1689045151.1532745,67
1689045151.2032697,68
1689045151.2582743,61
1689045151.30827,55
1689045151.3582692,51
1689045151.4082737,48
1689045151.4582694,45
1689045151.5082736,39
1689045151.5582752,30
1689045151.6082735,21
1689045151.6582732,13
1689045151.7082736,9
1689045151.758269,7
1689045151.8082728,7
1689045151.8582687,6
1689045151.9082735,17
1689045151.9582682,45
1689045152.0082777,61
1689045152.0422688,55
1689045152.0922723,48
1689045152.1422677,39
1689045152.1922684,32
1689045152.2422721,32
1689045152.2922685,35
1689045152.3422723,32
1689045152.3922722,25
1689045152.4422674,18
1689045152.4922678,15
1689045152.5422719,15
1689045152.5922673,15
1689045152.6422718,18
1689045152.694268,38
1689045152.7422717,68
1689045152.7922716,77
1689045152.842268,71
1689045152.8922675,62
1689045152.9422665,55
1689045152.9922674,51
1689045153.031268,51
1689045153.0752711,50
1689045153.1252663,45
1689045153.1752708,40
1689045153.2252672,38
1689045153.2752707,37
1689045153.3252666,38
1689045153.3752759,40
1689045153.4252663,51
1689045153.4752705,70
1689045153.5262656,76
1689045153.57527,70
1689045153.6252658,64
1689045153.6761637,59
1689045153.7257135,55
1689045153.7757125,53
1689045153.825474,49
1689045153.8753285,44
1689045153.9253235,39
1689045153.975328,35
1689045154.025328,32
1689045154.0593238,30
1689045154.1093276,28
1689045154.1593242,27
1689045154.209323,38
1689045154.2593234,54
1689045154.3093276,55
1689045154.3593273,47
1689045154.4100318,40
1689045154.4600322,35
1689045154.5100274,32
1689045154.5600271,32
1689045154.6100268,28
1689045154.6600266,21
1689045154.7100313,13
1689045154.7600272,8
1689045154.8100312,9
1689045154.8600266,11
1689045154.9100268,12
1689045154.9600263,13
1689045155.0100305,32
1689045155.0440278,59
1689045155.0930262,67
1689045155.143031,63
1689045155.1930304,53
1689045155.244031,44
1689045155.2930279,40
1689045155.3430302,41
1689045155.3930264,41
1689045155.4430304,39
1689045155.493027,34
1689045155.5430317,32
1689045155.59303,32
1689045155.6430295,34
1689045155.6930256,34
1689045155.7426326,34
1689045155.7936335,49
1689045155.8426378,68
1689045155.8926334,70
1689045155.942639,63
1689045155.9926374,57
1689045156.0316331,53
1689045156.0786371,52
1689045156.128633,53
1689045156.1786323,52
1689045156.228573,49
1689045156.2787445,44
1689045156.3287427,42
1689045156.3787427,40
1689045156.4287434,39
1689045156.4787426,37
1689045156.528743,39
1689045156.5787423,51
1689045156.6287377,65
1689045156.6787431,64
1689045156.728742,58
1689045156.7787385,52
1689045156.8282409,46
1689045156.879114,41
1689045156.929113,37
1689045156.9787636,30
1689045157.0284395,21
1689045157.06644,14
1689045157.1144438,11
1689045157.1654403,9
1689045157.2154393,8
1689045157.273444,8
1689045157.3234396,6
1689045157.3734453,17
1689045157.4234438,44
1689045157.4734387,61
1689045157.5234435,55
1689045157.5734413,45
1689045157.6234431,36
1689045157.673439,32
1689045157.7234385,34
1689045157.7734382,36
1689045157.8240087,31
1689045157.8735645,25
1689045157.9233067,20
1689045157.9733028,17
1689045158.0233085,17
1689045158.0563066,17
1689045158.106307,17
1689045158.1563017,30
1689045158.2063017,59
1689045158.259306,77
1689045158.3093026,73
1689045158.3593075,63
1689045158.4093022,55
1689045158.459306,51
1689045158.5093057,51
1689045158.5593019,50
1689045158.609301,47
1689045158.6593056,43
1689045158.7093015,40
1689045158.7593014,40
1689045158.8093007,40
1689045158.859301,40
1689045158.909305,38
1689045158.9593053,46
1689045159.009301,64
1689045159.042301,72
1689045159.0923047,71
1689045159.142301,62
1689045159.1923046,56
1689045159.2423046,52
1689045159.2922997,51
1689045159.3423004,49
1689045159.3923044,44
1689045159.4423003,38
1689045159.4923043,32
1689045159.5423064,28
1689045159.5923038,24
1689045159.642304,21
1689045159.6923041,16
1689045159.7422998,13
1689045159.794305,26
1689045159.8442998,50
1689045159.8933036,58
1689045159.9433045,50
1689045159.9933043,40
1689045160.0313034,34
1689045160.0762985,32
1689045160.1263049,33
1689045160.1762981,33
1689045160.2263033,28
1689045160.2762985,19
1689045160.326303,15
1689045160.376298,12
1689045160.4273026,11
1689045160.4762986,12
1689045160.526304,12
1689045160.5762978,25
1689045160.6262982,59
1689045160.676298,71
1689045160.7263033,64
1689045160.7763023,51
1689045160.8272982,40
1689045160.876298,37
1689045160.9262972,40
1689045160.9764273,40
1689045161.026343,34
1689045161.0593383,27
1689045161.1093385,23
1689045161.1593428,22
1689045161.2093432,25
1689045161.2593427,28
1689045161.3093393,28
1689045161.3593428,42
1689045161.4093385,68
1689045161.4593964,79
1689045161.5093381,74
1689045161.5593386,67
1689045161.609343,63
1689045161.659342,60
1689045161.7093372,58
1689045161.7593422,54
1689045161.809338,48
1689045161.8593369,43
1689045161.9093375,40
1689045161.959337,38
1689045162.0093415,37
1689045162.043337,35
1689045162.0983412,34
1689045162.1483364,44
1689045162.1983376,61
1689045162.2593415,64
1689045162.3093386,53
1689045162.3593361,43
1689045162.4093368,36
1689045162.459341,32
1689045162.509336,32
1689045162.5593405,30
1689045162.609336,24
1689045162.6593406,16
1689045162.7093365,10
1689045162.7593422,7
1689045162.80934,6
1689045162.8593357,4
1689045162.909336,8
1689045162.9593365,35
1689045163.0093358,63
1689045163.0433362,65
1689045163.0933397,58
1689045163.1433396,46
1689045163.1933348,37
1689045163.2433352,35
1689045163.2933404,37
1689045163.3433347,36
1689045163.3933394,29
1689045163.4433396,22
1689045163.4933355,17
1689045163.543335,15
1689045163.5933387,15
1689045163.645335,19
1689045163.695334,41
1689045163.744339,70
1689045163.7933383,74
1689045163.8433347,66
1689045163.893334,57
1689045163.9433334,51
1689045163.9933383,50
1689045164.0323381,50
1689045164.0763335,48
1689045164.1263378,42
1689045164.176334,39
1689045164.2263384,39
1689045164.2763376,40
1689045164.326333,41
1689045164.376333,44
1689045164.4263372,59
1689045164.476333,74
1689045164.5263329,76
1689045164.5763335,70
1689045164.6263325,64
1689045164.6763377,58
1689045164.7543337,55
1689045164.8043375,51
1689045164.8543322,46
1689045164.9043317,41
1689045164.9543364,39
1689045165.0043318,37
1689045165.037332,34
1689045165.0873318,32
1689045165.1373363,36
1689045165.1883361,49
1689045165.2433317,57
1689045165.293336,63
1689045165.3433313,43
1689045165.3933313,24
1689045165.443332,11
1689045165.4933312,11
1689045165.5433354,12
1689045165.5933313,4
1689045165.6433356,0
1689045165.6933353,0
1689045165.7433317,0
1689045165.793391,0
1689045165.8433316,0
1689045165.8933306,0
1689045165.9453309,35
1689045165.9943347,86
1689045166.0323348,87
1689045166.0763307,56
1689045166.1263347,44
1689045166.1763318,36
1689045166.2263303,35
1689045166.276335,39
1689045166.326331,37
1689045166.3763342,30
1689045166.4263341,23
1689045166.47633,20
1689045166.5263298,19
1689045166.5763338,20
1689045166.6263297,34
1689045166.6763337,61
1689045166.7263353,76
1689045166.7763338,73
1689045166.8263288,64
1689045166.8763337,55
1689045166.9263294,50
1689045166.9763293,51
1689045167.0263293,51
1689045167.060329,46
1689045167.110333,43
1689045167.1603332,40
1689045167.2103329,39
1689045167.260328,39
1689045167.3103328,40
1689045167.3603287,50
1689045167.4103324,65
1689045167.4603279,70
1689045167.5103283,64
1689045167.5603337,58
1689045167.6103323,54
1689045167.660328,51
1689045167.7103322,50
1689045167.7603285,47
1689045167.8103316,41
1689045167.8603277,37
1689045167.910327,32
1689045167.960328,29
1689045168.0113423,25
1689045168.0443316,24
1689045168.0943272,30
1689045168.1443274,46
1689045168.1933281,55
1689045168.243331,49
1689045168.2933269,40
1689045168.3433309,34
1689045168.3933315,31
1689045168.443326,32
1689045168.4933262,30
1689045168.5433311,24
1689045168.5933259,18
1689045168.6433303,15
1689045168.693326,13
1689045168.7433302,13
1689045168.7933261,13
1689045168.8443303,28
1689045168.894326,53
1689045168.9433298,62
1689045168.9933257,54
1689045169.0323303,43
1689045169.0793295,38
1689045169.1293254,35
1689045169.1793294,38
1689045169.2293253,37
1689045169.2793248,31
1689045169.3296828,25
1689045169.3793354,21
1689045169.4293373,20
1689045169.4803307,19
1689045169.5293355,20
1689045169.579335,36
1689045169.6293304,61
1689045169.6793303,69
1689045169.7293305,61
1689045169.779335,52
1689045169.8293304,44
1689045169.8793344,41
1689045169.9293303,43
1689045169.979334,42
1689045170.0293303,38
1689045170.0673301,34
1689045170.116334,34
1689045170.1663358,37
1689045170.2163339,39
1689045170.2743337,39
1689045170.3243294,46
1689045170.374333,65
1689045170.4243357,75
1689045170.4743288,72
1689045170.5243294,65
1689045170.5743332,59
1689045170.6243336,55
1689045170.6743343,53
1689045170.7243328,50
1689045170.7743294,45
1689045170.8243325,41
1689045170.8743327,39
1689045170.9243279,38
1689045170.9743278,38
1689045171.0243325,37
1689045171.0633326,34
1689045171.1143284,38
1689045171.1633282,53
1689045171.213332,64
1689045171.2633276,61
1689045171.313328,54
1689045171.3633277,48
1689045171.4133272,44
1689045171.4633276,42
1689045171.5133317,40
1689045171.5633276,35
1689045171.613328,29
1689045171.663327,25
1689045171.7133315,22
1689045171.7633271,18
1689045171.8133266,14
1689045171.8633275,12
1689045171.9133308,12
1689045171.9633265,31
1689045172.0133328,55
1689045172.046331,60
1689045172.0963259,55
1689045172.1463315,47
1689045172.1970677,41
1689045172.246236,40
1689045172.2965064,43
1689045172.346826,40
1689045172.396821,33
1689045172.4468257,24
1689045172.4968214,17
1689045172.5468206,12
1689045172.5968223,10
1689045172.6468256,7
1689045172.6968253,16
1689045172.7468503,42
1689045172.7968502,61
1689045172.8468556,56
1689045172.8968554,44
1689045172.9468544,32
1689045172.996856,24
1689045173.0328546,26
1689045173.080855,28
1689045173.130856,26
1689045173.1808496,19
1689045173.2308497,13
1689045173.2808542,9
1689045173.33085,8
1689045173.3808503,10
1689045173.430866,29
1689045173.4808552,59
1689045173.5308497,70
1689045173.5808537,61
1689045173.6308496,49
1689045173.6808534,40
1689045173.7448487,37
1689045173.7948534,39
1689045173.8448493,37
1689045173.894849,31
1689045173.944853,26
1689045173.9948528,23
1689045174.032849,21
1689045174.0808482,22
1689045174.1308527,42
1689045174.1808484,71
1689045174.2308526,79
1689045174.2808492,73
1689045174.3308485,64
1689045174.3808482,57
1689045174.4308474,55
1689045174.4808524,55
1689045174.530852,52
1689045174.5808473,48
1689045174.6308515,44
1689045174.680852,41
1689045174.7308476,40
1689045174.7808475,38
1689045174.830848,44
1689045174.8808477,61
1689045174.9308534,68
1689045174.9808476,63
1689045175.0308468,56
1689045175.0688467,51
1689045175.1168509,49
1689045175.1668472,49
1689045175.216851,47
1689045175.2748468,42
1689045175.3248503,37
1689045175.3748467,32
1689045175.4248464,29
1689045175.4748514,27
1689045175.5248501,23
1689045175.574852,29
1689045175.6248505,45
1689045175.6748457,53
1689045175.7248516,54
1689045175.7748451,36
1689045175.8248496,20
1689045175.8748457,15
1689045175.9248455,20
1689045175.9748456,20
1689045176.02485,10
1689045176.0638447,0
1689045176.1138453,0
1689045176.163849,0
1689045176.2138448,0
1689045176.2638493,0
1689045176.3138509,3
1689045176.3638449,57
1689045176.4138455,84
1689045176.4638486,54
1689045176.5138445,42
1689045176.5638487,34
1689045176.6138453,32
1689045176.6638486,36
1689045176.7138438,36
1689045176.7638443,30
1689045176.8138437,24
1689045176.8638434,20
1689045176.913844,20
1689045176.963843,19
1689045177.0138445,26
1689045177.0478477,51
1689045177.0978432,67
1689045177.1478431,72
1689045177.1978478,65
1689045177.2478433,56
1689045177.2978432,50
1689045177.3478432,51
1689045177.3978426,52
1689045177.4478476,47
1689045177.4978433,40
1689045177.5478423,35
1689045177.5978472,34
1689045177.6478431,35
1689045177.697847,37
1689045177.7478426,45
1689045177.7978468,63
1689045177.847843,73
1689045177.8978462,68
1689045177.947842,61
1689045177.9978414,56
1689045178.0338464,53
1689045178.0838413,53
1689045178.1338465,52
1689045178.1838462,47
1689045178.244842,42
1689045178.2948427,38
1689045178.3448412,35
1689045178.3948412,34
1689045178.444842,33
1689045178.4958453,37
1689045178.5458415,52
1689045178.5948405,65
1689045178.6448412,63
1689045178.6948411,56
1689045178.744845,49
1689045178.7948465,44
1689045178.845006,43
1689045178.89424,41
1689045178.944258,37
1689045178.994258,28
1689045179.033258,18
1689045179.0772576,13
1689045179.127253,9
1689045179.1772578,6
1689045179.2272534,4
1689045179.2772534,5
1689045179.3272572,26
1689045179.377253,55
1689045179.427253,56
1689045179.4772573,47
1689045179.5272572,38
1689045179.5772574,31
1689045179.6272519,32
1689045179.6772528,34
1689045179.7272565,32
1689045179.7772527,26
1689045179.8272524,22
1689045179.8772516,18
1689045179.9272532,16
1689045179.9772568,15
1689045180.0272515,17
1689045180.061252,42
1689045180.111252,55
1689045180.1612523,66
1689045180.2112558,59
1689045180.2612536,48
1689045180.3112526,39
1689045180.3612556,38
1689045180.4112513,41
1689045180.4612553,41
1689045180.5112507,38
1689045180.561251,34
1689045180.611255,32
1689045180.6612506,35
1689045180.7112558,37
1689045180.7612555,37
1689045180.8112557,47
1689045180.861255,67
1689045180.9112506,76
1689045180.96125,73
1689045181.0112512,67
1689045181.0442545,62
1689045181.0942562,60
1689045181.1442542,59
1689045181.1942499,55
1689045181.24425,50
1689045181.2942493,45
1689045181.344254,41
1689045181.3942504,40
1689045181.4442494,39
1689045181.4942503,38
1689045181.5442686,37
1689045181.5942538,43
1689045181.6442487,57
1689045181.6942494,64
1689045181.7442532,60
1689045181.79425,54
1689045181.8442533,49
1689045181.8942552,45
1689045181.944253,43
1689045181.9942486,40
1689045182.033201,35
1689045182.0788162,33
1689045182.128821,28
1689045182.1788173,23
1689045182.2288163,21
1689045182.2788205,18
1689045182.3288214,14
1689045182.378816,8
1689045182.428821,9
1689045182.4788153,30
1689045182.5285778,52
1689045182.579071,52
1689045182.6290648,45
1689045182.6790695,39
1689045182.7290642,35
1689045182.779065,35
1689045182.8290653,36
1689045182.8790686,32
1689045182.9290707,28
1689045182.979064,24
1689045183.029065,21
1689045183.062065,19
1689045183.1120687,18
1689045183.1620681,17
1689045183.212068,15
1689045183.2620642,20
1689045183.31207,41
1689045183.3620634,61
1689045183.4120646,61
1689045183.4620633,53
1689045183.5120735,44
1689045183.5620632,40
1689045183.612064,42
1689045183.6620626,43
1689045183.7120674,40
1689045183.762063,34
1689045183.8120637,31
1689045183.8620627,31
1689045183.912068,35
1689045183.9620628,39
1689045184.0120666,40
1689045184.045063,42
1689045184.0970626,45
1689045184.1450665,65
1689045184.1950617,73
1689045184.2450666,69
1689045184.2940621,63
1689045184.3450618,58
1689045184.3950615,55
1689045184.4450626,53
1689045184.4950633,49
1689045184.5450616,45
1689045184.5950618,41
1689045184.6450658,40
1689045184.6950626,38
1689045184.7450657,37
1689045184.7950609,36
1689045184.8450606,33
1689045184.8960614,29
1689045184.9460618,32
1689045184.9970605,44
1689045185.0340652,52
1689045185.079066,48
1689045185.129066,40
1689045185.1790657,34
1689045185.2290642,28
1689045185.2790647,26
1689045185.3290606,27
1689045185.3790646,25
1689045185.4290595,20
1689045185.4789002,14
1689045185.5288994,10
1689045185.579068,8
1689045185.6283102,8
1689045185.6783102,9
1689045185.7283146,8
1689045185.7783146,9
1689045185.8283155,27
1689045185.8783107,55
1689045185.9283102,61
1689045185.9783094,53
1689045186.0283096,42
1689045186.0613103,33
1689045186.1113093,32
1689045186.1613097,36
1689045186.2113137,38
1689045186.2613091,35
1689045186.3113139,31
1689045186.3613214,28
1689045186.4113147,26
1689045186.4613087,28
1689045186.5113134,30
1689045186.5613086,30
1689045186.611309,40
1689045186.661313,60
1689045186.7113144,74
1689045186.761308,73
1689045186.8113127,67
1689045186.8613138,60
1689045186.9113126,57
1689045186.9613085,56
1689045187.0113127,54
1689045187.0453084,48
1689045187.095312,44
1689045187.145312,40
1689045187.1953075,40
1689045187.2463121,40
1689045187.2953124,39
1689045187.345312,37
1689045187.3953116,34
1689045187.446314,37
1689045187.496312,53
1689045187.5453074,67
1689045187.5953066,66
1689045187.6457355,58
1689045187.6957862,52
1689045187.745522,48
1689045187.7959173,48
1689045187.8459105,47
1689045187.8959153,42
1689045187.9459164,36
1689045187.995911,30
1689045188.034911,24
1689045188.0819147,20
1689045188.1319103,13
1689045188.1819108,9
1689045188.2319145,6
1689045188.28191,5
1689045188.3319097,19
1689045188.3819146,45
1689045188.4319146,55
1689045188.4819138,47
1689045188.5319102,36
1689045188.5819094,27
1689045188.631914,24
1689045188.6819136,28
1689045188.731914,30
1689045188.781914,26
1689045188.8319094,21
1689045188.8819091,16
1689045188.9319086,14
1689045188.9819088,13
1689045189.0319133,12
1689045189.0649128,10
1689045189.1149082,15
1689045189.1649814,40
1689045189.214384,67
1689045189.2643802,69
1689045189.31438,57
1689045189.3643794,46
1689045189.4143796,41
1689045189.4643838,44
1689045189.514384,46
1689045189.56438,44
1689045189.6143854,40
1689045189.6643836,38
1689045189.7143838,37
1689045189.7643836,38
1689045189.8143806,39
1689045189.8643835,41
1689045189.9143834,59
1689045189.9643786,79
1689045190.014379,81
1689045190.0483792,73
1689045190.098383,68
1689045190.1483786,63
1689045190.1983826,60
1689045190.2483792,60
1689045190.2983782,58
1689045190.348384,53
1689045190.398383,47
1689045190.4483776,43
1689045190.4983778,41
1689045190.54822,40
1689045190.59878,40
1689045190.6487832,40
1689045190.6987834,53
1689045190.7487829,68
1689045190.798783,71
1689045190.8487785,64
1689045190.8987827,58
1689045190.9487793,51
1689045190.9987824,45
1689045191.0347788,41
1689045191.0817826,38
1689045191.131788,32
1689045191.1817782,24
1689045191.2317822,18
1689045191.281778,13
1689045191.331782,11
1689045191.3817775,11
1689045191.4317815,10
1689045191.481782,16
1689045191.531777,40
1689045191.5817773,60
1689045191.6317828,59
1689045191.6817775,50
1689045191.731783,42
1689045191.782777,39
1689045191.8317811,40
1689045191.881781,40
1689045191.931781,36
1689045191.9817765,30
1689045192.031776,26
1689045192.0657816,24
1689045192.1157765,24
1689045192.1657808,24
1689045192.2157757,23
1689045192.265782,33
1689045192.3157806,55
1689045192.3657823,70
1689045192.4154406,68
1689045192.465907,61
1689045192.5155182,55
1689045192.5657542,52
1689045192.615754,53
1689045192.6657536,52
1689045192.7157493,48
1689045192.7657535,44
1689045192.8157496,41
1689045192.8657484,40
1689045192.9157534,40
1689045192.9657536,39
1689045193.0157537,40
1689045193.0487487,51
1689045193.1037533,65
1689045193.1537528,70
1689045193.2037528,66
1689045193.2627497,61
1689045193.3127477,56
1689045193.3627481,53
1689045193.4127483,51
1689045193.4627476,48
1689045193.5123527,44
1689045193.5628452,41
1689045193.6128445,39
1689045193.662849,38
1689045193.7128496,37
1689045193.7628489,34
1689045193.8128448,31
1689045193.862846,34
1689045193.912845,47
1689045193.9628487,54
1689045194.0128443,59
1689045194.0458446,43
1689045194.101849,34
1689045194.1518495,27
1689045194.2018502,26
1689045194.262844,24
1689045194.312849,16
1689045194.362843,7
1689045194.4128432,1
1689045194.4628475,0
1689045194.512848,0
1689045194.5628428,2
1689045194.6128473,0
1689045194.6628475,0
1689045194.7128477,15
1689045194.7628477,57
1689045194.812843,80
1689045194.862847,71
1689045194.9128423,56
1689045194.962843,43
1689045195.012843,39
1689045195.0458434,40
1689045195.0958471,40
1689045195.1458476,33
1689045195.1958482,22
1689045195.2468424,14
1689045195.2958424,10
1689045195.345842,10
1689045195.395842,10
1689045195.445846,9
1689045195.4978464,6
1689045195.549842,24
1689045195.5998466,67
1689045195.648846,93
1689045195.6988416,87
1689045195.748841,73
1689045195.7988474,61
1689045195.8488455,55
1689045195.8988452,57
1689045195.9488416,57
1689045195.9988413,49
1689045196.0348449,41
1689045196.098845,36
1689045196.1488442,35
1689045196.1988454,35
1689045196.2488446,34
1689045196.2988408,32
1689045196.34884,29
1689045196.3988447,31
1689045196.4488404,59
1689045196.4988403,93
1689045196.54884,98
1689045196.598842,87
1689045196.6488395,77
1689045196.6988409,68
1689045196.7488394,63
1689045196.7988439,61
1689045196.8488438,55
1689045196.8988397,47
1689045196.9488437,40
1689045196.9988391,35
1689045197.0348384,32
1689045197.0848396,29
1689045197.1348395,25
1689045197.1848395,20
1689045197.245843,14
1689045197.295839,3
1689045197.3488436,13
1689045197.3988445,47
1689045197.4458427,65
1689045197.4958389,54
1689045197.5458386,40
1689045197.5958393,29
1689045197.6458428,23
1689045197.6958385,24
1689045197.745839,21
1689045197.7958434,13
1689045197.845842,3
1689045197.895842,0
1689045197.9458423,0
1689045197.995843,0
1689045198.034842,0
1689045198.0798419,0
1689045198.1298375,0
1689045198.1798418,0
1689045198.2328422,33
1689045198.2828372,76
1689045198.3328414,76
1689045198.382841,58
1689045198.432837,39
1689045198.4828374,28
1689045198.5328367,31
1689045198.582841,35
1689045198.6328363,28
1689045198.6828363,16
1689045198.7328358,5
1689045198.7828405,0
1689045198.832836,0
1689045198.882842,4
1689045198.932836,7
1689045198.9828403,15
1689045199.03284,56
1689045199.0658355,103
1689045199.1158404,111
1689045199.1658359,104
1689045199.215835,65
1689045199.2658358,60
1689045199.3158374,59
1689045199.3658364,60
1689045199.4158397,57
1689045199.4658396,49
1689045199.5158396,42
1689045199.5658355,39
1689045199.6158392,38
1689045199.665835,37
1689045199.7154279,37
1689045199.7654233,35
1689045199.8151956,37
1689045199.8650746,51
1689045199.9150739,65
1689045199.9660742,65
1689045200.0160737,57
1689045200.049074,51
1689045200.0980744,48
1689045200.1480742,45
1689045200.1980748,43
1689045200.2480745,39
1689045200.2990732,30
1689045200.3490748,20
1689045200.3990748,11
1689045200.4490747,6
1689045200.4990737,6
1689045200.5480735,6
1689045200.5980794,6
1689045200.6480777,6
1689045200.6980727,20
1689045200.7480774,48
1689045200.798655,62
1689045200.8486593,55
1689045200.899655,44
1689045200.9496598,36
1689045200.999655,34
1689045201.035655,37
1689045201.0826604,37
1689045201.1326542,34
1689045201.1826587,27
1689045201.2326543,20
1689045201.2876582,16
1689045201.33766,15
1689045201.387654,15
1689045201.4376535,17
1689045201.487658,36
1689045201.537654,63
1689045201.5876577,72
1689045201.6386595,65
1689045201.6886578,57
1689045201.7386596,51
1689045201.7886577,51
1689045201.8386528,52
1689045201.8886588,50
1689045201.9386528,45
1689045201.9886572,41
1689045202.035653,40
1689045202.0716524,40
1689045202.121653,40
1689045202.1716528,39
1689045202.2216568,41
1689045202.2766528,60
1689045202.326657,71
1689045202.376657,69
1689045202.4266524,63
1689045202.4766521,59
1689045202.5266519,56
1689045202.576652,54
1689045202.6266522,51
1689045202.676653,47
1689045202.7266521,42
1689045202.7766562,39
1689045202.826652,38
1689045202.8766558,36
1689045202.926657,34
1689045202.976656,31
1689045203.0296557,37
1689045203.0636508,52
1689045203.1136553,58
1689045203.1636584,69
1689045203.213655,53
1689045203.2637353,42
1689045203.3136554,36
1689045203.3636503,35
1689045203.4136503,34
1689045203.463655,29
1689045203.5136547,20
1689045203.56365,12
1689045203.6136546,8
1689045203.6636496,7
1689045203.71365,6
1689045203.7636542,2
1689045203.8136497,12
1689045203.8636541,49
1689045203.91365,77
1689045203.9636495,71
1689045204.013654,57
1689045204.046649,45
1689045204.0966551,40
1689045204.1466496,40
1689045204.196655,41
1689045204.2466502,36
1689045204.2966487,26
1689045204.3466535,18
1689045204.3966486,13
1689045204.4466493,13
1689045204.4966528,13
1689045204.5466535,15
1689045204.5986528,37
1689045204.6476533,73
1689045204.6966531,89
1689045204.7466478,84
1689045204.796648,75
1689045204.846648,67
1689045204.8966522,64
1689045204.9466536,64
1689045204.996648,58
1689045205.035648,49
1689045205.079652,43
1689045205.129652,39
1689045205.179648,36
1689045205.2296522,33
1689045205.2796469,31
1689045205.3296537,40
1689045205.3796475,63
1689045205.4296517,84
1689045205.4796467,81
1689045205.5296514,70
1689045205.5796473,61
1689045205.6296508,55
1689045205.679647,53
1689045205.729647,50
1689045205.780646,41
1689045205.8306508,34
1689045205.880646,27
1689045205.9305408,21
1689045205.9805462,16
1689045206.0305455,10
1689045206.063545,3
1689045206.113541,0
1689045206.1635401,22
1689045206.2135408,55
1689045206.2635448,61
1689045206.3135407,49
1689045206.3635445,38
1689045206.4131455,29
1689045206.4631453,27
1689045206.513145,27
1689045206.56315,21
1689045206.613145,11
1689045206.6631496,1
1689045206.7131498,0
1689045206.7631493,0
1689045206.8131447,1
1689045206.8631494,0
1689045206.913145,7
1689045206.963149,41
1689045207.0151446,71
1689045207.0461502,68
1689045207.0961506,57
1689045207.1461504,40
1689045207.1961508,28
1689045207.250144,30
1689045207.2991486,36
1689045207.349144,31
1689045207.3991482,21
1689045207.4491436,13
1689045207.4991486,10
1689045207.5491443,14
1689045207.599148,17
1689045207.6491437,22
1689045207.6991436,50
1689045207.7491438,90
1689045207.7991478,102
1689045207.8491435,92
1689045207.8991432,60
1689045207.9491427,55
1689045207.999148,54
1689045208.0351472,52
1689045208.0821433,50
1689045208.1321473,45
1689045208.182149,41
1689045208.2321472,39
1689045208.2821426,38
1689045208.3321466,37
1689045208.3821423,36
1689045208.4321468,34
1689045208.4821467,38
1689045208.5321462,52
1689045208.5821416,61
1689045208.632148,58
1689045208.6831422,52
1689045208.7331462,48
1689045208.7831423,45
1689045208.8331459,43
1689045208.883142,41
1689045208.9331458,37
1689045208.983141,32
1689045209.0331457,28
1689045209.0661454,26
1689045209.1161416,25
1689045209.1661456,22
1689045209.2161422,19
1689045209.2661407,14
1689045209.3161695,11
1689045209.3669033,22
1689045209.4169066,43
1689045209.4669068,50
1689045209.5169024,44
1689045209.5669026,38
1689045209.616902,33
1689045209.6669018,33
1689045209.716908,35
1689045209.7669077,34
1689045209.8169014,30
1689045209.866906,24
1689045209.9169018,20
1689045209.9669056,18
1689045210.0169008,19
1689045210.0499012,20
1689045210.1059008,20
1689045210.155901,19
1689045210.2059064,32
1689045210.2639015,51
1689045210.3139055,56
1689045210.363905,50
1689045210.4139009,42
1689045210.4639053,38
1689045210.5139048,38
1689045210.5639,39
1689045210.6139007,37
1689045210.6639047,35
1689045210.7139044,34
1689045210.7639046,34
1689045210.8138995,35
1689045210.8639002,35
1689045210.9138992,36
1689045210.9638999,40
1689045211.0138996,53
1689045211.047904,64
1689045211.1029038,62
1689045211.1529,56
1689045211.2029037,51
1689045211.2631063,47
1689045211.3138573,46
1689045211.3638577,45
1689045211.413858,42
1689045211.463862,40
1689045211.5138621,37
1689045211.5638616,36
1689045211.613857,36
1689045211.663857,35
1689045211.7138565,33
1689045211.7638617,31
1689045211.8138568,38
1689045211.8638616,52
1689045211.913857,57
1689045211.9638624,62
1689045212.0138566,49
1689045212.047861,41
1689045212.0978563,37
1689045212.1478572,31
1689045212.197856,23
1689045212.2488606,12
1689045212.2978604,3
1689045212.3478577,0
1689045212.3978622,0
1689045212.4478602,0
1689045212.4978554,0
1689045212.54786,0
1689045212.5978563,0
1689045212.6488597,0
1689045212.6998553,39
1689045212.747872,72
1689045212.7978551,67
1689045212.8478591,48
1689045212.8978555,33
1689045212.9478626,28
1689045212.997855,34
1689045213.036859,35
1689045213.080855,30
1689045213.130859,18
1689045213.1808605,7
1689045213.230855,1
1689045213.2808585,0
1689045213.3308544,2
1689045213.3808596,4
1689045213.4308581,19
1689045213.4808586,61
1689045213.5308542,92
1689045213.5808582,90
1689045213.6308548,75
1689045213.6808534,63
1689045213.7305136,60
1689045213.780919,66
1689045213.8309193,66
1689045213.880919,58
1689045213.930919,47
1689045213.9809139,41
1689045214.0309143,40
1689045214.063914,44
1689045214.1139152,46
1689045214.1649146,48
1689045214.2149184,64
1689045214.2649186,95
1689045214.314918,107
1689045214.3649142,98
1689045214.414918,86
1689045214.4649138,77
1689045214.5149193,72
1689045214.564913,70
1689045214.614918,64
1689045214.6649137,54
1689045214.7149174,47
1689045214.7649128,42
1689045214.8149195,39
1689045214.8649123,35
1689045214.9149175,28
1689045214.9649131,23
1689045215.0149174,38
1689045215.0479174,67
1689045215.0979125,74
1689045215.1479168,61
1689045215.197913,42
1689045215.2479186,31
1689045215.297912,27
1689045215.3479166,30
1689045215.3979182,28
1689045215.447648,17
1689045215.4976428,3
1689045215.5476427,0
1689045215.5976424,0
1689045215.6476464,0
1689045215.6976423,0
1689045215.747642,0
1689045215.7976422,15
1689045215.8476462,57
1689045215.8976414,74
1689045215.9476457,63
1689045215.9976413,45
1689045216.0366414,33
1689045216.0806458,32
1689045216.1306415,38
1689045216.1806412,37
1689045216.2306414,26
1689045216.2806458,13
1689045216.3306417,9
1689045216.3806412,10
1689045216.4306455,12
1689045216.4806452,10
1689045216.5306451,19
1689045216.580647,63
1689045216.6306627,92
1689045216.6806617,90
1689045216.730485,79
1689045216.78094,67
1689045216.8308375,61
1689045216.8801224,62
1689045216.9305298,61
1689045216.9805288,54
1689045217.0305333,48
1689045217.0645351,46
1689045217.1145341,47
1689045217.164529,49
1689045217.214533,46
1689045217.2645295,48
1689045217.3145282,69
1689045217.364533,94
1689045217.414528,96
1689045217.4645324,86
1689045217.5145328,78
1689045217.5645282,70
1689045217.6145337,65
1689045217.6645284,62
1689045217.7145286,53
1689045217.7645328,44
1689045217.814534,37
1689045217.8645322,30
1689045217.9145327,24
1689045217.9645274,18
1689045218.0145276,7
1689045218.047532,0
1689045218.0975268,0
1689045218.149527,31
1689045218.1975267,58
1689045218.2475328,54
1689045218.2975283,42
1689045218.3475327,34
1689045218.3975272,29
1689045218.4475315,31
1689045218.4975314,30
1689045218.5475268,24
1689045218.5975308,15
1689045218.6475313,9
1689045218.6975257,7
1689045218.747526,8
1689045218.7975266,8
1689045218.84753,5
1689045218.8985314,18
1689045218.948526,52
1689045218.9975257,74
1689045219.0365255,68
1689045219.08353,58
1689045219.1335258,42
1689045219.1835268,40
1689045219.2335296,46
1689045219.2835257,52
1689045219.33353,50
1689045219.383526,44
1689045219.4335296,41
1689045219.48353,40
1689045219.5335252,42
1689045219.5835292,42
1689045219.6335294,47
1689045219.6835291,70
1689045219.7335246,90
1689045219.783524,87
1689045219.8337712,77
1689045219.883865,69
1689045219.9338615,63
1689045219.983861,60
1689045220.0338647,56
1689045220.07186,47
1689045220.1208653,41
1689045220.170872,34
1689045220.2208648,29
1689045220.2788608,26
1689045220.3288598,24
1689045220.3788602,18
1689045220.4288645,10
1689045220.4788597,25
1689045220.528864,52
1689045220.5788598,57
1689045220.628864,45
1689045220.6788654,34
1689045220.72886,26
1689045220.7788594,25
1689045220.8288639,27
1689045220.8788595,23
1689045220.928859,15
1689045220.9788592,7
1689045221.028864,2
1689045221.0618632,1
1689045221.111859,1
1689045221.1618629,1
1689045221.211859,1
1689045221.264859,22
1689045221.3148632,55
1689045221.3648627,65
1689045221.4148643,54
1689045221.4648623,40
1689045221.5148623,29
1689045221.5648625,31
1689045221.614858,38
1689045221.6648586,38
1689045221.714858,38
1689045221.7648623,40
1689045221.8148618,40
1689045221.8648632,40
1689045221.9148574,40
1689045221.9648616,42
1689045222.0148578,63
1689045222.049862,85
1689045222.097862,87
1689045222.1478574,78
1689045222.1978614,68
1689045222.247857,61
1689045222.2978618,58
1689045222.3479006,57
1689045222.3978562,51
1689045222.447857,43
1689045222.4988563,37
1689045222.5488565,33
1689045222.5988607,31
1689045222.6488605,28
1689045222.6988606,24
1689045222.7498622,23
1689045222.7998617,40
1689045222.848856,60
1689045222.8988602,54
1689045222.948856,39
1689045222.9988601,25
1689045223.0368602,18
1689045223.0848558,18
1689045223.1348548,21
1689045223.1848555,19
1689045223.2348595,11
1689045223.2848554,4
1689045223.3348596,0
1689045223.3848553,0
1689045223.4348552,0
1689045223.4848554,0
1689045223.5348594,6
1689045223.584855,36
1689045223.634859,59
1689045223.6848547,56
1689045223.7348588,43
1689045223.784855,31
1689045223.8348603,27
1689045223.8848546,31
1689045223.9348586,31
1689045223.9848607,24
1689045224.0348582,17
1689045224.067858,14
1689045224.1178539,13
1689045224.167858,16
1689045224.2178538,21
1689045224.2678587,35
1689045224.3178537,62
1689045224.3678577,82
1689045224.4178536,79
1689045224.4678576,69
1689045224.517854,62
1689045224.567854,60
1689045224.6178572,60
1689045224.6678529,55
1689045224.717857,48
1689045224.767857,41
1689045224.817853,38
1689045224.8678567,36
1689045224.9178522,35
1689045224.9678571,34
1689045225.017853,45
1689045225.050852,68
1689045225.100858,77
1689045225.1508515,74
1689045225.2008522,65
1689045225.2508526,58
1689045225.300853,52
1689045225.3518512,49
1689045225.4018557,44
1689045225.451852,36
1689045225.501856,24
1689045225.5518522,15
1689045225.6018572,6
1689045225.651856,0
1689045225.701851,0
1689045225.7518506,0
1689045225.8018506,9
1689045225.8518512,39
1689045225.901855,53
1689045225.9518554,45
1689045226.0018504,34
1689045226.0378513,26
1689045226.087855,23
1689045226.137855,25
1689045226.187855,25
1689045226.248857,20
1689045226.2988544,10
1689045226.3488505,5
1689045226.3988547,4
1689045226.4488544,4
1689045226.4998498,3
1689045226.5508492,15
1689045226.60085,45
1689045226.648849,65
1689045226.698854,62
1689045226.74885,51
1689045226.7988496,42
1689045226.8488536,41
1689045226.8988492,45
1689045226.9488535,43
1689045226.9988534,36
1689045227.0377483,31
1689045227.0817485,32
1689045227.1317482,35
1689045227.181749,37
1689045227.2317436,37
1689045227.2847478,50
1689045227.3347433,77
1689045227.3847482,87
1689045227.434744,80
1689045227.4847436,73
1689045227.5345976,67
1689045227.584831,64
1689045227.6348267,63
1689045227.6848304,57
1689045227.7348306,49
1689045227.7848265,42
1689045227.8348308,38
1689045227.8848262,35
1689045227.934826,32
1689045227.9848301,26
1689045228.034826,21
1689045228.067826,34
1689045228.1178298,48
1689045228.167826,58
1689045228.217826,49
1689045228.2678254,39
1689045228.3178298,31
1689045228.3678255,28
1689045228.4178245,29
1689045228.4678254,26
1689045228.517826,20
1689045228.5678296,12
1689045228.617825,8
1689045228.6678243,6
1689045228.7178288,6
1689045228.7678306,5
1689045228.817829,11
1689045228.8678243,37
1689045228.9178243,57
1689045228.9678288,55
1689045229.0178235,42
1689045229.051824,31
1689045229.1018236,26
1689045229.1518233,28
1689045229.201824,30
1689045229.2518282,26
1689045229.3018246,21
1689045229.3518233,21
1689045229.401828,26
1689045229.4518228,30
1689045229.5018282,30
1689045229.551828,34
1689045229.6018226,59
1689045229.651828,85
1689045229.701824,86
1689045229.751827,77
1689045229.801827,69
1689045229.8518286,64
1689045229.901823,63
1689045229.9518266,60
1689045230.0018225,53
1689045230.0378249,45
1689045230.084827,41
1689045230.1348264,39
1689045230.1848266,38
1689045230.2348225,37
1689045230.2848263,35
1689045230.3348222,43
1689045230.3848262,75
1689045230.4348214,87
1689045230.4848258,81
1689045230.5348277,71
1689045230.584823,62
1689045230.634821,54
1689045230.6848223,51
1689045230.734821,45
1689045230.7848256,34
1689045230.8348212,22
1689045230.8848252,10
1689045230.9348254,0
1689045230.984826,0
1689045231.034821,0
1689045231.0848248,0
1689045231.134821,0
1689045231.1848245,26
1689045231.23482,55
1689045231.2848227,56
1689045231.3348196,41
1689045231.3848243,26
1689045231.4348373,20
1689045231.4848244,24
1689045231.5348244,28
1689045231.5848255,25
1689045231.6348197,19
1689045231.6848238,13
1689045231.73482,10
1689045231.784824,10
1689045231.8348198,10
1689045231.8848197,9
1689045231.9348187,26
1689045231.9848187,59
1689045232.0348196,78
1689045232.0688193,73
1689045232.1188247,66
1689045232.1688237,54
1689045232.218823,48
1689045232.2688231,49
1689045232.318818,48
1689045232.3688228,39
1689045232.418818,27
1689045232.4688184,19
1689045232.5188224,16
1689045232.5688226,15
1689045232.6188176,13
1689045232.668818,15
1689045232.7188222,41
1689045232.768818,75
1689045232.818822,83
1689045232.8688178,73
1689045232.9188237,62
1689045232.9688218,55
1689045233.0188174,55
1689045233.0518215,56
1689045233.101817,52
1689045233.1518216,43
1689045233.2018175,34
1689045233.2518172,27
1689045233.3018227,26
1689045233.351823,25
1689045233.4018214,24
1689045233.4518173,38
1689045233.5018167,71
1689045233.5518167,88
1689045233.6018176,81
1689045233.651821,69
1689045233.7018213,59
1689045233.7518213,54
1689045233.8018205,54
1689045233.851816,49
1689045233.9018164,40
1689045233.951816,32
1689045234.0018177,27
1689045234.03782,26
1689045234.0858169,26
1689045234.1358156,24
1689045234.1858215,33
1689045234.2358198,63
1689045234.2858193,84
1689045234.335815,78
1689045234.38582,65
1689045234.4358149,55
1689045234.4858158,50
1689045234.5358193,50
1689045234.5853703,47
1689045234.6353664,39
1689045234.685366,30
1689045234.7353652,25
1689045234.7853656,23
1689045234.8353698,23
1689045234.8853652,20
1689045234.935076,23
1689045234.9855022,47
1689045235.0355022,76
1689045235.0735075,76
1689045235.1215022,62
1689045235.1715066,52
1689045235.2215044,47
1689045235.282502,48
1689045235.3325014,45
1689045235.382502,37
1689045235.432507,29
1689045235.4825065,24
1689045235.5325024,23
1689045235.582502,22
1689045235.632501,20
1689045235.6825018,22
1689045235.7325056,50
1689045235.7825012,75
1689045235.8325052,77
1689045235.8825016,61
1689045235.932501,48
1689045235.9825008,44
1689045236.032501,47
1689045236.070505,45
1689045236.1185067,40
1689045236.1685052,31
1689045236.2185047,25
1689045236.2685013,23
1689045236.3185003,22
1689045236.3685045,22
1689045236.4185007,21
1689045236.4685047,19
1689045236.5185046,34
1689045236.5685046,66
1689045236.6184998,82
1689045236.6685042,69
1689045236.7185047,51
1689045236.7685041,43
1689045236.8184998,45
1689045236.8685737,48
1689045236.9185007,40
1689045236.9685037,28
1689045237.0185,15
1689045237.0514996,3
1689045237.1015034,0
1689045237.1514995,0
1689045237.2015033,0
1689045237.2514987,0
1689045237.3015032,0
1689045237.3515036,2
1689045237.4015026,40
1689045237.4514987,68
1689045237.5015035,59
1689045237.551499,37
1689045237.6014984,19
1689045237.651503,20
1689045237.7015026,30
1689045237.7514982,30
1689045237.801499,19
1689045237.8514981,7
1689045237.902498,0
1689045237.952514,0
1689045238.002502,0
1689045238.038502,0
1689045238.085498,0
1689045238.1355026,28
1689045238.1854975,70
1689045238.2355018,77
1689045238.2854044,59
1689045238.3354235,38
1689045238.385419,29
1689045238.4354186,36
1689045238.4864192,42
1689045238.535419,38
1689045238.5854182,27
1689045238.6354187,19
1689045238.6854208,15
1689045238.735423,14
1689045238.7854183,19
1689045238.8354225,51
1689045238.8854182,93
1689045238.935419,100
1689045238.9855049,62
1689045239.035418,53
1689045239.0684185,49
1689045239.1184225,50
1689045239.1684198,52
1689045239.2184222,51
1689045239.2684174,47
1689045239.3189404,41
1689045239.3689725,39
1689045239.418981,37
1689045239.4689698,37
1689045239.518969,46
1689045239.568972,66
1689045239.6189675,73
1689045239.6689723,66
1689045239.7189686,57
1689045239.7689717,53
1689045239.8189692,53
1689045239.8689718,53
1689045239.9189668,49
1689045239.968967,43
1689045240.0189674,39
1689045240.0529692,37
1689045240.102971,37
1689045240.1529667,36
1689045240.2029727,42
1689045240.252968,59
1689045240.302971,69
1689045240.352967,64
1689045240.402966,56
1689045240.4529667,51
1689045240.5029671,50
1689045240.5529704,51
1689045240.6029673,48
1689045240.6529675,42
1689045240.70297,38
1689045240.7669702,36
1689045240.8169658,35
1689045240.8669655,34
1689045240.9169655,35
1689045240.9669707,49
1689045241.0169697,65
1689045241.049967,64
1689045241.105965,57
1689045241.155965,50
1689045241.2059648,47
1689045241.2669654,48
1689045241.316966,47
1689045241.366969,42
1689045241.4169693,38
1689045241.4669654,33
1689045241.516965,29
1689045241.5666971,26
1689045241.6164358,23
1689045241.6664238,19
1689045241.7164283,20
1689045241.7664232,39
1689045241.8164277,56
1689045241.866428,55
1689045241.9164238,44
1689045241.9664404,36
1689045242.0164404,34
1689045242.04944,38
1689045242.099436,39
1689045242.1494398,35
1689045242.1994398,29
1689045242.2494395,23
1689045242.2994397,20
1689045242.3494394,19
1689045242.3994362,19
1689045242.4494395,18
1689045242.5004385,27
1689045242.5504394,47
1689045242.5994403,60
1689045242.6494353,54
1689045242.6994348,41
1689045242.7494388,35
1689045242.799435,37
1689045242.8494391,41
1689045242.8994348,40
1689045242.9494388,35
1689045242.9994345,31
1689045243.0384383,31
1689045243.0834343,32
1689045243.132434,33
1689045243.182441,35
1689045243.2325826,53
1689045243.28201,69
1689045243.3320045,68
1689045243.3830092,59
1689045243.4330091,49
1689045243.483009,46
1689045243.534005,50
1689045243.583009,49
1689045243.6330044,45
1689045243.6830053,40
1689045243.7330048,38
1689045243.78301,37
1689045243.8330045,36
1689045243.8830085,35
1689045243.9330044,48
1689045243.9830055,66
1689045244.033005,71
1689045244.0720038,63
1689045244.1190042,55
1689045244.1690035,49
1689045244.2200043,49
1689045244.2700038,50
1689045244.320005,47
1689045244.3690076,41
1689045244.4190092,37
1689045244.4690053,34
1689045244.5190046,34
1689045244.5690029,33
1689045244.6190073,32
1689045244.6700025,41
1689045244.7190032,61
1689045244.7700074,68
1689045244.819007,61
1689045244.8690028,52
1689045244.9190023,48
1689045244.9700022,47
1689045245.0200021,48
1689045245.0530016,44
1689045245.1020067,40
1689045245.1520083,35
1689045245.2020075,32
1689045245.2530031,31
1689045245.3020082,31
1689045245.353002,30
1689045245.4030032,28
1689045245.452007,34
1689045245.5030015,52
1689045245.5521476,65
1689045245.6028335,60
1689045245.6528316,50
1689045245.7028315,43
1689045245.7668357,41
1689045245.816836,40
1689045245.8668394,36
1689045245.916836,27
1689045245.9668324,20
1689045246.0168357,15
1689045246.0498314,13
1689045246.0998318,12
1689045246.1498303,12
1689045246.1998348,11
1689045246.249831,9
1689045246.2998314,14
1689045246.3524685,39
1689045246.3994637,62
1689045246.4494684,60
1689045246.4994643,47
1689045246.5494688,35
1689045246.5994704,32
1689045246.6494637,36
1689045246.6994638,38
1689045246.749465,34
1689045246.7994637,26
1689045246.849468,17
1689045246.8994641,14
1689045246.9494634,13
1689045246.999464,13
1689045247.0384629,14
1689045247.083463,24
1689045247.1334624,56
1689045247.1834643,70
1689045247.2334626,64
1689045247.2834673,56
1689045247.3334668,40
1689045247.383046,39
1689045247.433047,41
1689045247.4830506,40
1689045247.5330462,33
1689045247.5830505,25
1689045247.6330464,19
1689045247.6830466,17
1689045247.7479594,16
1689045247.7977815,20
1689045247.8477793,42
1689045247.897776,68
1689045247.9477792,71
1689045247.9977796,62
1689045248.0387788,51
1689045248.0807807,45
1689045248.1308393,43
1689045248.1807761,44
1689045248.2307754,41
1689045248.2837787,36
1689045248.3337746,31
1689045248.3837738,28
1689045248.433774,26
1689045248.4837742,26
1689045248.5337782,31
1689045248.5837781,56
1689045248.633778,72
1689045248.6837783,73
1689045248.7477777,64
1689045248.7977781,53
1689045248.8477747,53
1689045248.8977776,57
1689045248.9477742,57
1689045248.9977775,51
1689045249.0387778,44
1689045249.080773,40
1689045249.130801,39
1689045249.1807728,37
1689045249.2307737,37
1689045249.283773,47
1689045249.333777,65
1689045249.3837743,69
1689045249.4337723,62
1689045249.4837735,54
1689045249.533773,50
1689045249.5837736,51
1689045249.633773,51
1689045249.683772,48
1689045249.7337763,42
1689045249.7837765,39
1689045249.8337715,36
1689045249.883776,35
1689045249.933772,35
1689045249.9837718,34
1689045250.0337758,43
1689045250.0667722,63
1689045250.116771,69
1689045250.1667707,64
1689045250.2167754,54
1689045250.2667792,48
1689045250.3167713,47
1689045250.3667712,48
1689045250.4167712,45
1689045250.466778,40
1689045250.5167704,34
1689045250.5667748,31
1689045250.61677,30
1689045250.666823,29
1689045250.74577,28
1689045250.7947698,24
1689045250.8447697,38
1689045250.8947709,58
1689045250.9447703,63
1689045250.9947743,55
1689045251.0397701,47
1689045251.0787697,44
1689045251.128769,43
1689045251.1787696,44
1689045251.2287738,40
1689045251.2837696,35
1689045251.3337693,30
1689045251.3837693,27
1689045251.4338257,27
1689045251.4837737,26
1689045251.5337734,25
1689045251.5837736,24
1689045251.633773,22
1689045251.6837687,28
1689045251.7617729,45
1689045251.8117733,55
1689045251.8617682,46
1689045251.9117727,40
1689045251.9617724,38
1689045252.0117686,40
1689045252.044768,39
1689045252.0947676,36
1689045252.1441467,31
1689045252.1944566,26
1689045252.250452,23
1689045252.2974524,21
1689045252.3474517,20
1689045252.3984518,19
1689045252.448451,18
1689045252.4984558,16
1689045252.5484517,14
1689045252.5984507,24
1689045252.6484516,40
1689045252.6984503,45
1689045252.7614522,35
1689045252.8114626,14
1689045252.861451,9
1689045252.9109812,15
1689045252.961005,19
1689045253.0110042,15
1689045253.0440087,7
1689045253.0940044,0
1689045253.1440084,0
1689045253.1940055,0
1689045253.2500045,0
1689045253.3010085,0
1689045253.3500047,0
1689045253.4000082,0
1689045253.4510036,19
1689045253.5000036,50
1689045253.5500038,50
1689045253.6000082,34
1689045253.6500077,16
1689045253.7000074,8
1689045253.7500076,16
1689045253.8010073,26
1689045253.8500032,27
1689045253.9000075,21
1689045253.9500031,13
1689045254.0000045,5
1689045254.039007,4
1689045254.0830028,5
1689045254.1339133,8
1689045254.183919,17
1689045254.2339132,53
1689045254.2839286,72
1689045254.3339133,66
1689045254.3839135,50
1689045254.433915,39
1689045254.4839175,34
1689045254.5339189,37
1689045254.5839126,38
1689045254.633913,32
1689045254.6839135,27
1689045254.7339132,25
1689045254.783913,29
1689045254.8339188,35
1689045254.8839118,37
1689045254.932961,41
1689045254.9831235,70
1689045255.0339098,88
1689045255.0739152,87
1689045255.1249092,74
1689045255.173916,64
1689045255.2239094,60
1689045255.2839134,60
1689045255.3339097,59
1689045255.3839147,51
1689045255.4339132,44
1689045255.483909,40
1689045255.533914,38
1689045255.5839088,38
1689045255.633909,37
1689045255.6839128,34
1689045255.7339082,45
1689045255.7836025,73
1689045255.833663,85
1689045255.8836617,77
1689045255.9336658,67
1689045255.983666,62
1689045256.0336614,60
1689045256.0866637,58
1689045256.1366656,54
1689045256.1866605,46
1689045256.2366655,39
1689045256.2866616,34
1689045256.3366652,31
1689045256.3866649,29
1689045256.4366608,27
1689045256.486665,23
1689045256.5366604,27
1689045256.5866647,52
1689045256.636662,79
1689045256.6866605,78
1689045256.7366645,65
1689045256.7866595,55
1689045256.8366604,52
1689045256.8866606,52
1689045256.936659,50
1689045256.9868693,44
1689045257.0361466,37
1689045257.0709317,31
1689045257.1209302,29
1689045257.1709354,27
1689045257.2209303,26
1689045257.2709353,24
1689045257.320931,22
1689045257.3709302,19
1689045257.4209325,17
1689045257.4709306,37
1689045257.5209343,71
1689045257.5709312,82
1689045257.6209307,67
1689045257.6709363,50
1689045257.72093,38
1689045257.770929,35
1689045257.8209293,38
1689045257.8709352,35
1689045257.920934,25
1689045257.97093,14
1689045258.0209339,5
1689045258.0539296,0
1689045258.103929,0
1689045258.1539328,0
1689045258.2039332,0
1689045258.2539291,0
1689045258.3039296,0
1689045258.353936,11
1689045258.4039302,54
1689045258.4539282,75
1689045258.5039332,65
1689045258.5539322,48
1689045258.6039283,35
1689045258.6539292,33
1689045258.703929,37
1689045258.7539322,35
1689045258.8039284,27
1689045258.8539324,18
1689045258.903932,11
1689045258.9539287,6
1689045259.003927,5
1689045259.0399325,3
1689045259.0879285,1
1689045259.1379278,9
1689045259.1879268,47
1689045259.2379332,85
1689045259.2879314,87
1689045259.3379328,74
1689045259.3879273,57
1689045259.4379272,46
1689045259.4879313,44
1689045259.5379274,45
1689045259.587931,40
1689045259.6379263,33
1689045259.6879308,25
1689045259.737894,20
1689045259.7878976,19
1689045259.8371284,19
1689045259.8876452,19
1689045259.937641,38
1689045259.987645,64
1689045260.0376408,100
1689045260.0766425,103
1689045260.1266406,65
1689045260.1768372,57
1689045260.2268813,51
1689045260.284877,49
1689045260.334877,49
1689045260.3848782,47
1689045260.434877,43
1689045260.4848812,42
1689045260.5348766,44
1689045260.5848773,45
1689045260.634877,43
1689045260.6848805,41
1689045260.7348766,49
1689045260.7848756,72
1689045260.8346272,79
1689045260.8842082,76
1689045260.9342065,69
1689045260.9842064,63
1689045261.034203,60
1689045261.0722065,58
1689045261.120202,56
1689045261.1712031,50
1689045261.220206,44
1689045261.2762022,40
1689045261.326202,39
1689045261.3762066,38
1689045261.4262013,37
1689045261.4762018,36
1689045261.527209,35
1689045261.5772054,51
1689045261.626202,66
1689045261.676201,65
1689045261.7268505,58
1689045261.7766075,54
1689045261.8266027,52
1689045261.8766024,51
1689045261.9266012,50
1689045261.9766028,46
1689045262.026606,42
1689045262.0596068,40
1689045262.1096017,39
1689045262.159606,38
1689045262.2096028,36
1689045262.267602,34
1689045262.3176057,32
1689045262.367602,31
1689045262.4176013,31
1689045262.4676013,43
1689045262.5176005,59
1689045262.5676055,59
1689045262.6176052,49
1689045262.6676016,40
1689045262.717607,39
1689045262.7816021,40
1689045262.8316076,40
1689045262.8816006,35
1689045262.9315996,29
1689045262.9816003,25
1689045263.0315995,22
1689045263.0656073,20
1689045263.115604,20
1689045263.1655998,18
1689045263.2156012,16
1689045263.2676039,15
1689045263.3186002,18
1689045263.3676038,29
1689045263.4176004,52
1689045263.4676056,61
1689045263.5176034,54
1689045263.5675986,40
1689045263.6175992,37
1689045263.6676033,39
1689045263.717599,40
1689045263.7676032,39
1689045263.8176048,35
1689045263.8675992,31
1689045263.9176035,29
1689045263.9676027,28
1689045264.0175986,28
1689045264.0515988,29
1689045264.101603,28
1689045264.1526024,29
1689045264.2026033,43
1689045264.2516055,65
1689045264.3015988,70
1689045264.3516023,63
1689045264.4015987,54
1689045264.4515982,49
1689045264.501597,48
1689045264.5515978,49
1689045264.6016033,46
1689045264.651597,41
1689045264.7016013,38
1689045264.7515976,35
1689045264.8015969,33
1689045264.8516018,33
1689045264.9015968,33
1689045264.9515984,32
1689045265.0016012,39
1689045265.040597,58
1689045265.084597,71
1689045265.134601,74
1689045265.1845963,66
1689045265.2345972,58
1689045265.2845967,54
1689045265.334596,53
1689045265.3846006,52
1689045265.434603,47
1689045265.4845963,41
1689045265.5345957,38
1689045265.5845962,35
1689045265.6345968,34
1689045265.6845953,33
1689045265.7346003,32
1689045265.7845998,29
1689045265.8345966,29
1689045265.8845956,44
1689045265.9345949,65
1689045265.9845953,69
1689045266.0346014,62
1689045266.0735946,55
1689045266.1199682,52
1689045266.1710021,51
1689045266.220001,51
1689045266.2700002,48
1689045266.320001,43
1689045266.3700044,37
1689045266.420601,34
1689045266.4706001,32
1689045266.5206048,31
1689045266.5706005,29
1689045266.620605,26
1689045266.6706011,24
1689045266.7206004,22
1689045266.7706044,21
1689045266.8206046,31
1689045266.8706048,54
1689045266.9205992,66
1689045266.970604,58
1689045267.0206006,46
1689045267.054911,39
1689045267.1041787,37
1689045267.1548882,39
1689045267.2043798,39
1689045267.2549002,34
1689045267.3049014,26
1689045267.354901,19
1689045267.4049053,13
1689045267.4549007,10
1689045267.5049,9
1689045267.5549004,9
1689045267.6049001,8
1689045267.654901,6
1689045267.704904,4
1689045267.7549002,11
1689045267.8049047,40
1689045267.8548996,64
1689045267.904904,62
1689045267.9549005,49
1689045268.0049007,38
1689045268.0409,32
1689045268.087904,33
1689045268.137904,37
1689045268.187899,36
1689045268.237899,29
1689045268.287899,22
1689045268.3379033,16
1689045268.3879004,13
1689045268.4379032,11
1689045268.4878988,11
1689045268.5378985,11
1689045268.587899,16
1689045268.6378992,45
1689045268.687903,75
1689045268.7379026,78
1689045268.7879035,67
1689045268.8379033,55
1689045268.8879025,47
1689045268.9378986,48
1689045268.9878983,49
1689045269.0379035,45
1689045269.0758984,38
1689045269.1239033,32
1689045269.1738985,24
1689045269.223903,19
1689045269.285902,15
1689045269.3359017,13
1689045269.3859015,12
1689045269.4359016,32
1689045269.4858966,66
1689045269.535898,80
1689045269.5858972,72
1689045269.6358962,61
1689045269.6859012,51
1689045269.735897,47
1689045269.7858973,48
1689045269.8358963,46
1689045269.8858967,40
1689045269.9358964,32
1689045269.9858966,25
1689045270.0358965,20
1689045270.068896,17
1689045270.1189005,16
1689045270.168896,14
1689045270.2188966,24
1689045270.2718954,53
1689045270.3218958,75
1689045270.3718982,72
1689045270.4218998,61
1689045270.4719,51
1689045270.5219,46
1689045270.5718954,48
1689045270.6218963,49
1689045270.6718993,44
1689045270.7218955,36
1689045270.7718954,29
1689045270.8218958,25
1689045270.8718956,24
1689045270.921899,24
1689045270.9718997,25
1689045271.0218952,39
1689045271.0548952,65
1689045271.104894,76
1689045271.1548939,75
1689045271.204895,64
1689045271.2548985,53
1689045271.3048944,46
1689045271.3548942,45
1689045271.4049003,44
1689045271.454894,40
1689045271.5048983,32
1689045271.5548983,26
1689045271.6048934,24
1689045271.654898,26
1689045271.704895,29
1689045271.7549,36
1689045271.8048978,51
1689045271.8548937,72
1689045271.9048936,80
1689045271.9548938,72
1689045272.0048926,60
1689045272.0408936,51
1689045272.088897,49
1689045272.1388943,50
1689045272.1888928,51
1689045272.238897,47
1689045272.288893,43
1689045272.3388922,39
1689045272.3888931,37
1689045272.4388924,35
1689045272.4888966,33
1689045272.5386622,31
1689045272.588662,29
1689045272.638518,44
1689045272.6885133,67
1689045272.7385137,71
1689045272.7885144,63
1689045272.8385198,51
1689045272.8885703,45
1689045272.9385128,45
1689045272.9885135,48
1689045273.0385137,45
1689045273.0885174,36
1689045273.1385133,32
1689045273.188517,28
1689045273.238514,27
1689045273.2885132,27
1689045273.338517,26
1689045273.388513,25
1689045273.4385126,26
1689045273.4885135,45
1689045273.5385127,68
1689045273.5885117,71
1689045273.638512,61
1689045273.6885138,50
1689045273.7385182,46
1689045273.7885141,48
1689045273.8385122,49
1689045273.8885114,45
1689045273.9385123,40
1689045273.988516,34
1689045274.038518,30
1689045274.0765111,27
1689045274.124512,25
1689045274.1745117,23
1689045274.2245157,22
1689045274.2855155,21
1689045274.335511,35
1689045274.3855155,60
