timestamp,bvp
1689041406.7697117,24
1689041406.819712,23
1689041406.8697116,22
1689041406.9197109,21
1689041406.969715,25
1689041407.0197115,55
1689041407.0696273,95
1689041407.119623,104
1689041407.1706276,96
1689041407.2196229,61
1689041407.269623,57
1689041407.319623,54
1689041407.3696265,53
1689041407.4196231,49
1689041407.4696214,44
1689041407.5196223,39
1689041407.5696218,35
1689041407.619623,32
1689041407.6696932,31
1689041407.719622,31
1689041407.7526221,30
1689041407.802626,30
1689041407.8526325,40
1689041407.902891,63
1689041407.9529786,76
1689041408.0029821,71
1689041408.052978,64
1689041408.1029818,58
1689041408.1529782,54
1689041408.2029772,53
1689041408.252978,50
1689041408.3029776,45
1689041408.3529775,40
1689041408.4029768,36
1689041408.4529772,33
1689041408.5029812,31
1689041408.5529766,30
1689041408.602976,28
1689041408.6530387,26
1689041408.7029812,25
1689041408.7389762,35
1689041408.7859817,50
1689041408.835977,68
1689041408.8859758,67
1689041408.9359803,60
1689041408.9859765,53
1689041409.0359802,48
1689041409.0859766,48
1689041409.135976,47
1689041409.1859753,44
1689041409.2359762,39
1689041409.2862222,34
1689041409.3360686,30
1689041409.3860726,28
1689041409.4360669,28
1689041409.4860718,28
1689041409.5360715,27
1689041409.586067,26
1689041409.6360667,38
1689041409.6865602,60
1689041409.7353833,69
1689041409.77021,62
1689041409.8202066,56
1689041409.8702097,49
1689041409.920206,47
1689041409.9702058,51
1689041410.0202053,51
1689041410.0696979,47
1689041410.119741,41
1689041410.1697454,37
1689041410.2197406,34
1689041410.270745,33
1689041410.3197453,32
1689041410.3697457,30
1689041410.4197404,31
1689041410.4697447,44
1689041410.51974,61
1689041410.5697448,60
1689041410.6197407,51
1689041410.6697402,42
1689041410.7197397,38
1689041410.7537403,39
1689041410.8027442,40
1689041410.8527448,38
1689041410.9032755,33
1689041410.9533098,27
1689041411.002455,22
1689041411.052459,20
1689041411.1024542,20
1689041411.1524546,20
1689041411.2024586,20
1689041411.252454,19
1689041411.3024538,26
1689041411.3524544,49
1689041411.402455,72
1689041411.4524543,71
1689041411.5024583,62
1689041411.5524545,54
1689041411.6024585,49
1689041411.6524584,47
1689041411.7024531,46
1689041411.738458,41
1689041411.7864537,37
1689041411.8366551,31
1689041411.8867493,27
1689041411.9367476,25
1689041411.986743,24
1689041412.0367475,23
1689041412.0867429,22
1689041412.1367474,21
1689041412.1867468,20
1689041412.2367485,33
1689041412.286747,60
1689041412.3367426,75
1689041412.3867424,70
1689041412.4505188,61
1689041412.5005236,53
1689041412.550519,50
1689041412.600538,50
1689041412.650523,47
1689041412.7005205,42
1689041412.7385225,35
1689041412.7835228,29
1689041412.8335228,25
1689041412.883523,23
1689041412.9335184,22
1689041412.9835181,21
1689041413.0335183,20
1689041413.0835223,18
1689041413.133522,21
1689041413.1835222,48
1689041413.233519,71
1689041413.283527,72
1689041413.3335173,61
1689041413.3835227,52
1689041413.4335172,46
1689041413.4835234,46
1689041413.5345168,46
1689041413.5837789,42
1689041413.6335309,35
1689041413.6835334,28
1689041413.7335262,22
1689041413.7665265,20
1689041413.816531,19
1689041413.866527,19
1689041413.916531,19
1689041413.9665306,18
1689041414.016531,17
1689041414.066526,31
1689041414.117305,58
1689041414.1665733,72
1689041414.2167425,65
1689041414.2666752,54
1689041414.3166747,45
1689041414.3666797,43
1689041414.4166796,45
1689041414.4666758,44
1689041414.5166755,39
1689041414.5666747,31
1689041414.616608,25
1689041414.6673422,21
1689041414.7173414,20
1689041414.7513444,20
1689041414.8003418,20
1689041414.851343,19
1689041414.9013493,20
1689041414.9513483,38
1689041415.0003502,60
1689041415.0506618,72
1689041415.1007829,64
1689041415.1507874,52
1689041415.2007868,43
1689041415.2507868,40
1689041415.300783,43
1689041415.350782,42
1689041415.40037,38
1689041415.450483,31
1689041415.5013137,25
1689041415.5513134,21
1689041415.6013086,20
1689041415.6513093,20
1689041415.7013087,21
1689041415.7403135,26
1689041415.7843132,40
1689041415.8335094,65
1689041415.8834548,74
1689041415.9334493,65
1689041415.9834485,53
1689041416.0334485,46
1689041416.0834484,47
1689041416.1334484,50
1689041416.1834483,49
1689041416.2340188,42
1689041416.2841382,35
1689041416.3339126,30
1689041416.3839164,27
1689041416.4339116,27
1689041416.4839158,33
1689041416.5339122,54
1689041416.5839157,74
1689041416.6339116,72
1689041416.6839156,60
1689041416.7339106,50
1689041416.774911,46
1689041416.823915,49
1689041416.8739111,50
1689041416.9239104,45
1689041416.9838006,38
1689041417.0341601,32
1689041417.0841656,29
1689041417.1341646,29
1689041417.1841645,37
1689041417.234182,61
1689041417.284522,81
1689041417.3338096,77
1689041417.3839269,65
1689041417.4342597,55
1689041417.4838307,50
1689041417.5338306,50
1689041417.5838304,49
1689041417.633826,42
1689041417.6838303,35
1689041417.7338257,28
1689041417.767826,25
1689041417.817826,25
1689041417.86783,26
1689041417.918294,43
1689041417.9681728,73
1689041418.0176587,83
1689041418.0673897,75
1689041418.1181474,66
1689041418.1680481,58
1689041418.2174788,52
1689041418.2674825,50
1689041418.317486,46
1689041418.3674824,39
1689041418.4174788,32
1689041418.4674778,26
1689041418.5174825,23
1689041418.567494,22
1689041418.617478,21
1689041418.6674821,30
1689041418.717478,58
1689041418.751482,81
1689041418.8064773,79
1689041418.8564782,69
1689041418.9064767,60
1689041418.9674854,53
1689041419.0174773,50
1689041419.0674813,47
1689041419.1174774,40
1689041419.1684775,33
1689041419.2174764,26
1689041419.2684765,23
1689041419.3174808,21
1689041419.3674772,21
1689041419.4174767,20
1689041419.4674847,19
1689041419.5174758,18
1689041419.5674803,23
1689041419.6174808,51
1689041419.6674764,82
1689041419.7174804,84
1689041419.7504764,73
1689041419.8004804,66
1689041419.8513243,58
1689041419.9006402,54
1689041419.950645,53
1689041420.0006452,48
1689041420.0506454,40
1689041420.1006403,32
1689041420.1506412,26
1689041420.2006404,23
1689041420.2516406,21
1689041420.3006449,21
1689041420.350644,20
1689041420.4006443,19
1689041420.4513452,18
1689041420.502179,22
1689041420.5521739,50
1689041420.602182,79
1689041420.651175,80
1689041420.7011783,67
1689041420.7401743,57
1689041420.7851787,51
1689041420.8351736,48
1689041420.8851783,48
1689041420.935178,43
1689041420.9931958,33
1689041421.043191,26
1689041421.0931954,21
1689041421.1431966,18
1689041421.1931953,17
1689041421.2431915,17
1689041421.2931924,17
1689041421.3431904,15
1689041421.393195,14
1689041421.4431906,17
1689041421.4961948,43
1689041421.5461905,79
1689041421.5961947,79
1689041421.6461904,66
1689041421.6961899,54
1689041421.7401958,47
1689041421.7791903,47
1689041421.8291953,49
1689041421.8791897,46
1689041421.9291945,38
1689041421.985194,30
1689041422.0351892,24
1689041422.0844169,20
1689041422.1352181,19
1689041422.185218,20
1689041422.235217,20
1689041422.2852194,24
1689041422.3362188,51
1689041422.385218,74
1689041422.4492216,77
1689041422.4992216,64
1689041422.549217,51
1689041422.5992215,44
1689041422.6492174,50
1689041422.699221,51
1689041422.740294,45
1689041422.7819917,41
1689041422.832271,35
1689041422.8823423,31
1689041422.932344,29
1689041422.985342,29
1689041423.035346,33
1689041423.0853462,58
1689041423.135346,77
1689041423.1853411,79
1689041423.2344937,65
1689041423.2852519,51
1689041423.3352563,42
1689041423.3852563,43
1689041423.4352572,45
1689041423.4852514,40
1689041423.5345228,32
1689041423.584576,25
1689041423.6345758,20
1689041423.684576,19
1689041423.7345765,19
1689041423.7675805,20
1689041423.8175766,27
1689041423.867576,56
1689041423.917576,86
1689041423.9675798,87
1689041424.0175803,74
1689041424.06758,64
1689041424.1175754,55
1689041424.1675751,53
1689041424.2175798,52
1689041424.2675755,46
1689041424.3175795,38
1689041424.3675795,30
1689041424.417575,24
1689041424.4675794,21
1689041424.5175745,21
1689041424.567579,21
1689041424.6175742,27
1689041424.6675754,55
1689041424.7175786,83
1689041424.7515786,84
1689041424.8015788,75
1689041424.851574,63
1689041424.9015787,53
1689041424.9515738,49
1689041425.0015786,48
1689041425.0515742,44
1689041425.1015782,37
1689041425.1515782,28
1689041425.2015743,23
1689041425.251574,21
1689041425.3015783,20
1689041425.3515792,19
1689041425.4015746,19
1689041425.451578,18
1689041425.5025773,25
1689041425.5515726,56
1689041425.6025774,87
1689041425.6515727,87
1689041425.7015774,73
1689041425.740577,61
1689041425.7845728,55
1689041425.834573,51
1689041425.8845732,51
1689041425.9351304,47
1689041425.9851303,41
1689041426.0351315,29
1689041426.085126,23
1689041426.1351302,19
1689041426.1851306,18
1689041426.2351253,18
1689041426.2851303,17
1689041426.3351297,16
1689041426.3851256,40
1689041426.4351246,73
1689041426.4857082,80
1689041426.534806,70
1689041426.5848064,55
1689041426.6348019,45
1689041426.684801,42
1689041426.7348058,44
1689041426.7678015,42
1689041426.8178022,38
1689041426.8678057,30
1689041426.917801,24
1689041426.9678009,20
1689041427.0178025,18
1689041427.0678053,18
1689041427.1178052,19
1689041427.1678061,20
1689041427.2180734,28
1689041427.2680736,46
1689041427.3180728,77
1689041427.3680732,81
1689041427.4180775,67
1689041427.4680748,50
1689041427.5180771,46
1689041427.568072,49
1689041427.6176102,49
1689041427.6676319,43
1689041427.717632,36
1689041427.7516277,30
1689041427.8016274,27
1689041427.8516319,26
1689041427.9016337,27
1689041427.9556272,44
1689041428.0046315,75
1689041428.0546267,80
1689041428.104632,70
1689041428.1546311,54
1689041428.204633,42
1689041428.2546313,46
1689041428.304627,51
1689041428.354627,48
1689041428.4046264,40
1689041428.4546263,34
1689041428.5046268,30
1689041428.5546305,28
1689041428.604627,28
1689041428.6546304,37
1689041428.7046268,63
1689041428.7406259,84
1689041428.7936308,82
1689041428.843626,68
1689041428.89363,53
1689041428.9516299,46
1689041429.0016255,47
1689041429.051626,47
1689041429.1016297,41
1689041429.1516297,32
1689041429.2016253,25
1689041429.25163,20
1689041429.3016255,19
1689041429.3516252,19
1689041429.4016252,23
1689041429.4536295,46
1689041429.5016246,78
1689041429.551629,84
1689041429.6016304,71
1689041429.6516287,60
1689041429.7016242,51
1689041429.7406256,47
1689041429.7876287,47
1689041429.8376248,42
1689041429.8876286,35
1689041429.9376235,27
1689041429.9876282,21
1689041430.0376236,18
1689041430.0876281,17
1689041430.1376238,16
1689041430.188146,15
1689041430.2375517,13
1689041430.2875469,13
1689041430.3379858,33
1689041430.3879857,68
1689041430.437981,81
1689041430.4879808,70
1689041430.5383356,58
1689041430.5877836,49
1689041430.6377788,44
1689041430.6877835,42
1689041430.7377784,38
1689041430.770783,30
1689041430.8207831,24
1689041430.8707793,16
1689041430.9207835,12
1689041430.970779,10
1689041431.0217779,9
1689041431.071783,8
1689041431.1217828,7
1689041431.171787,7
1689041431.2217824,23
1689041431.2717776,54
1689041431.3217824,68
1689041431.3717778,60
1689041431.4217775,49
1689041431.4717772,41
1689041431.521782,38
1689041431.571777,37
1689041431.621782,34
1689041431.6717818,27
1689041431.7217817,20
1689041431.754782,15
1689041431.8047836,13
1689041431.8547816,11
1689041431.9047768,10
1689041431.9547813,9
1689041432.0047772,8
1689041432.0547774,6
1689041432.1047778,11
1689041432.154781,36
1689041432.2047834,61
1689041432.2547808,62
1689041432.3047771,52
1689041432.3547804,44
1689041432.404776,39
1689041432.4547758,38
1689041432.5047762,38
1689041432.5547802,33
1689041432.6047826,26
1689041432.6547766,20
1689041432.7047803,15
1689041432.7407758,13
1689041432.7877796,12
1689041432.8377757,11
1689041432.8877754,11
1689041432.9377756,10
1689041432.9877799,12
1689041433.0377796,30
1689041433.0877793,54
1689041433.1377752,58
1689041433.1877801,50
1689041433.2377748,42
1689041433.2877748,37
1689041433.3377748,38
1689041433.3877795,40
1689041433.4387786,37
1689041433.4877737,30
1689041433.5377867,24
1689041433.5877786,21
1689041433.6377742,21
1689041433.6877742,21
1689041433.7377741,22
1689041433.7717786,32
1689041433.8217733,45
1689041433.8717732,61
1689041433.9218297,60
1689041433.971877,52
1689041434.0218804,44
1689041434.0718765,41
1689041434.1218805,44
1689041434.1718802,47
1689041434.22188,43
1689041434.2720041,38
1689041434.3220673,32
1689041434.3722558,29
1689041434.421804,27
1689041434.4717999,27
1689041434.5218039,32
1689041434.571804,51
1689041434.621799,68
1689041434.6718035,65
1689041434.7218034,55
1689041434.7548032,47
1689041434.8107991,43
1689041434.8608031,44
1689041434.9108045,45
1689041434.9688044,42
1689041435.0187988,34
1689041435.0688026,28
1689041435.1187985,24
1689041435.1688025,22
1689041435.2188025,22
1689041435.2687984,23
1689041435.3187983,22
1689041435.368798,35
1689041435.418798,64
1689041435.4687972,80
1689041435.5187974,74
1689041435.568797,64
1689041435.618802,56
1689041435.6687977,51
1689041435.718798,50
1689041435.7517977,47
1689041435.8018017,43
1689041435.8518028,36
1689041435.901797,29
1689041435.9517965,24
1689041436.0017967,22
1689041436.0520732,21
1689041436.1021745,20
1689041436.1513765,18
1689041436.2019463,19
1689041436.2539475,40
1689041436.303946,70
1689041436.3519459,77
1689041436.4019496,67
1689041436.4519465,58
1689041436.5019507,51
1689041436.5529509,49
1689041436.6039503,48
1689041436.6529455,43
1689041436.7029502,36
1689041436.7409463,28
1689041436.785946,24
1689041436.8359458,20
1689041436.8859456,19
1689041436.9359498,18
1689041436.985945,17
1689041437.0359497,15
1689041437.0859497,18
1689041437.135946,48
1689041437.1859498,75
1689041437.2359495,76
1689041437.2859452,63
1689041437.3359494,52
1689041437.3859444,45
1689041437.4359448,44
1689041437.485949,44
1689041437.5359492,40
1689041437.5859437,33
1689041437.6359487,25
1689041437.6863153,19
1689041437.7363198,16
1689041437.7683153,14
1689041437.8193161,13
1689041437.8683143,12
1689041437.919315,11
1689041437.969317,11
1689041438.0193188,33
1689041438.069319,66
1689041438.118316,78
1689041438.169319,67
1689041438.219315,53
1689041438.2693195,45
1689041438.3183146,44
1689041438.368319,46
1689041438.419314,43
1689041438.4683182,37
1689041438.5193143,28
1689041438.5693154,22
1689041438.6193163,19
1689041438.669318,18
1689041438.719318,19
1689041438.7533216,19
1689041438.8033152,20
1689041438.8543136,34
1689041438.9033177,62
1689041438.9543135,76
1689041439.0033126,68
1689041439.0533133,54
1689041439.103317,44
1689041439.1533139,43
1689041439.2023153,50
1689041439.2533107,51
1689041439.302602,44
1689041439.352521,37
1689041439.4025245,32
1689041439.4525204,28
1689041439.5025241,27
1689041439.553459,31
1689041439.6034577,53
1689041439.6534536,79
1689041439.7024555,81
1689041439.741458,68
1689041439.7884529,58
1689041439.8384576,46
1689041439.8884523,48
1689041439.9384537,52
1689041439.9884531,48
1689041440.0384572,40
1689041440.0884588,32
1689041440.1384568,26
1689041440.1884527,23
1689041440.2384572,23
1689041440.2884564,33
1689041440.3384523,64
1689041440.3884518,90
1689041440.4384563,86
1689041440.4884515,72
1689041440.5380855,60
1689041440.5891242,53
1689041440.6392498,52
1689041440.689249,51
1689041440.739245,45
1689041440.7722485,36
1689041440.8222442,30
1689041440.8722498,23
1689041440.9222445,20
1689041440.972244,19
1689041441.0222487,20
1689041441.0722485,38
1689041441.1222441,73
1689041441.1722448,90
1689041441.222244,80
1689041441.2722478,67
1689041441.3222442,57
1689041441.372249,51
1689041441.4222438,50
1689041441.472248,47
1689041441.522246,39
1689041441.572248,30
1689041441.622243,22
1689041441.6722474,17
1689041441.7222426,15
1689041441.7562473,15
1689041441.8112476,15
1689041441.8612425,14
1689041441.911243,25
1689041441.9702473,60
1689041442.0202427,87
1689041442.069542,88
1689041442.1199603,74
1689041442.1699553,58
1689041442.2199593,52
1689041442.2699592,51
1689041442.3199546,48
1689041442.3699548,40
1689041442.419954,29
1689041442.469959,20
1689041442.519959,14
1689041442.569959,12
1689041442.6199586,12
1689041442.6699584,12
1689041442.7199585,13
1689041442.7539544,34
1689041442.8029585,59
1689041442.8529541,85
1689041442.9029534,78
1689041442.952959,63
1689041443.002954,50
1689041443.0529542,43
1689041443.1029577,44
1689041443.1529574,44
1689041443.2029576,38
1689041443.252954,29
1689041443.3029535,21
1689041443.3529572,16
1689041443.4029531,14
1689041443.4529572,15
1689041443.5029576,17
1689041443.553959,36
1689041443.6049566,71
1689041443.6529567,87
1689041443.7029529,77
1689041443.7419562,62
1689041443.785958,53
1689041443.8359578,46
1689041443.8859565,50
1689041443.9359527,51
1689041443.985953,45
1689041444.0359523,40
1689041444.0859563,30
1689041444.1359518,24
1689041444.1859531,22
1689041444.2359512,22
1689041444.285956,35
1689041444.3359556,66
1689041444.3859556,87
1689041444.435952,82
1689041444.4859507,65
1689041444.5359514,50
1689041444.5859554,44
1689041444.6359506,49
1689041444.6859553,51
1689041444.7359555,44
1689041444.7699509,36
1689041444.819951,30
1689041444.869951,25
1689041444.919955,22
1689041444.9699504,22
1689041445.0199547,28
1689041445.0699499,55
1689041445.119956,89
1689041445.1699548,92
1689041445.2199495,77
1689041445.2699494,62
1689041445.3199542,53
1689041445.36995,53
1689041445.4199538,55
1689041445.4699538,49
1689041445.5199542,39
1689041445.5699565,28
1689041445.6199543,22
1689041445.6699495,19
1689041445.7199533,19
1689041445.752953,23
1689041445.808953,44
1689041445.8589492,83
1689041445.908949,96
1689041445.9699488,83
1689041446.0199547,67
1689041446.0699487,56
1689041446.119949,51
1689041446.1699486,50
1689041446.2199526,45
1689041446.2699485,36
1689041446.3199525,25
1689041446.3699486,16
1689041446.4199483,11
1689041446.469948,8
1689041446.5199518,8
1689041446.5699472,7
1689041446.6199484,21
1689041446.6729476,63
1689041446.7229517,97
1689041446.7559524,94
1689041446.8059475,62
1689041446.8559477,55
1689041446.9057612,50
1689041446.9557614,48
1689041447.0058277,47
1689041447.0558276,44
1689041447.105828,40
1689041447.1558273,34
1689041447.205823,30
1689041447.2558272,27
1689041447.305823,26
1689041447.3558269,27
1689041447.4058228,27
1689041447.4558268,28
1689041447.5058272,41
1689041447.5558267,62
1689041447.6058216,67
1689041447.6558256,59
1689041447.7058268,51
1689041447.741823,44
1689041447.7888262,41
1689041447.8388278,41
1689041447.8888266,41
1689041447.938821,39
1689041447.9888258,33
1689041448.038822,29
1689041448.0888207,26
1689041448.138826,25
1689041448.1888258,25
1689041448.2388256,26
1689041448.2888253,29
1689041448.3398209,42
1689041448.3898258,59
1689041448.4398208,63
1689041448.489825,56
1689041448.5398211,46
1689041448.589821,40
1689041448.639825,40
1689041448.6898198,41
1689041448.7398205,40
1689041448.7728205,36
1689041448.8228207,33
1689041448.8728204,30
1689041448.9228258,28
1689041448.9728198,28
1689041449.0228243,28
1689041449.0728197,30
1689041449.122824,41
1689041449.1728199,59
1689041449.2228253,63
1689041449.2728198,57
1689041449.32282,49
1689041449.3728204,43
1689041449.4228234,42
1689041449.4728203,44
1689041449.5229053,43
1689041449.5728185,40
1689041449.6228232,36
1689041449.6728191,33
1689041449.7228184,31
1689041449.7558239,31
1689041449.805823,31
1689041449.855823,32
1689041449.9058194,39
1689041449.9560049,56
1689041450.005808,67
1689041450.0558155,63
1689041450.1058125,55
1689041450.155814,47
1689041450.205812,43
1689041450.2558124,44
1689041450.3058074,45
1689041450.3558118,43
1689041450.405808,39
1689041450.4558077,34
1689041450.5058124,30
1689041450.555808,28
1689041450.6058075,28
1689041450.6558113,28
1689041450.7058077,33
1689041450.7418077,49
1689041450.7898128,60
1689041450.8398073,63
1689041450.8898065,56
1689041450.9398072,47
1689041450.9898124,42
1689041451.0398111,41
1689041451.0898068,44
1689041451.1398065,43
1689041451.1898105,40
1689041451.2398102,36
1689041451.289811,33
1689041451.3398063,32
1689041451.3898053,31
1689041451.43981,30
1689041451.4898102,30
1689041451.5398066,40
1689041451.589806,63
1689041451.639806,68
1689041451.6898103,62
1689041451.7398095,55
1689041451.7898097,46
1689041451.8398092,45
1689041451.8898091,45
1689041451.9398053,43
1689041451.989805,40
1689041452.0398054,34
1689041452.089805,29
1689041452.1398091,27
1689041452.1898086,26
1689041452.2398088,26
1689041452.2898092,25
1689041452.3398042,25
1689041452.389804,25
1689041452.4398034,37
1689041452.4898043,59
1689041452.5398088,70
1689041452.5898082,65
1689041452.639808,57
1689041452.6898034,50
1689041452.739803,46
1689041452.7728078,46
1689041452.822804,46
1689041452.8728042,43
1689041452.9228036,39
1689041452.972803,33
1689041453.0228074,29
1689041453.0728035,27
1689041453.1228034,26
1689041453.1728072,26
1689041453.2228024,26
1689041453.2728071,25
1689041453.322803,27
1689041453.372807,43
1689041453.4228067,64
1689041453.4728017,69
1689041453.5228019,61
1689041453.5728018,52
1689041453.6228068,45
1689041453.6728063,44
1689041453.7228022,45
1689041453.7568066,43
1689041453.8068063,40
1689041453.8568022,36
1689041453.906806,31
1689041453.9568012,27
1689041454.006801,25
1689041454.0568018,25
1689041454.1068058,25
1689041454.1568024,25
1689041454.2068055,26
1689041454.2568014,40
1689041454.3068051,61
1689041454.356801,67
1689041454.406805,59
1689041454.456801,50
1689041454.5068057,43
1689041454.556801,42
1689041454.6068048,44
1689041454.6568,43
1689041454.7068007,40
1689041454.7428017,34
1689041454.7901795,31
1689041454.840183,27
1689041454.89018,24
1689041454.9401782,23
1689041454.9901788,23
1689041455.0401833,22
1689041455.090183,25
1689041455.1401827,40
1689041455.1901777,58
1689041455.2401793,58
1689041455.2901785,48
1689041455.3401825,39
1689041455.3901782,32
1689041455.4401822,32
1689041455.4901776,35
1689041455.540179,35
1689041455.5901775,31
1689041455.640178,26
1689041455.6901777,22
1689041455.740182,20
1689041455.7781773,20
1689041455.8261778,20
1689041455.8761816,22
1689041455.9261773,34
1689041455.9871767,53
1689041456.0371816,57
1689041456.087178,50
1689041456.137177,41
1689041456.1871765,36
1689041456.2371767,36
1689041456.2871761,40
1689041456.3371806,41
1689041456.387177,39
1689041456.4371758,35
1689041456.487177,32
1689041456.5371764,30
1689041456.5871804,31
1689041456.6371758,36
1689041456.6871758,60
1689041456.7371752,69
1689041456.77118,65
1689041456.8211758,60
1689041456.8711803,50
1689041456.92118,45
1689041456.9711764,47
1689041457.021176,48
1689041457.0711799,46
1689041457.1211748,41
1689041457.1711752,37
1689041457.2211747,35
1689041457.2711751,34
1689041457.3211753,35
1689041457.3711755,44
1689041457.4211743,63
1689041457.471179,71
1689041457.5211787,65
1689041457.5711799,57
1689041457.6211755,50
1689041457.6711748,47
1689041457.7211738,48
1689041457.7541742,47
1689041457.8041756,44
1689041457.8541782,40
1689041457.9041734,35
1689041457.954174,32
1689041458.0041795,31
1689041458.0541778,32
1689041458.105174,43
1689041458.1541774,61
1689041458.2041743,68
1689041458.2541788,62
1689041458.3041775,55
1689041458.3541732,48
1689041458.4041734,46
1689041458.4541779,46
1689041458.504173,45
1689041458.554177,40
1689041458.6041782,36
1689041458.6541772,32
1689041458.7041724,30
1689041458.7431767,29
1689041458.7881727,30
1689041458.8381724,38
1689041458.8881779,46
1689041458.9381719,66
1689041458.9881763,62
1689041459.0381765,57
1689041459.0882306,51
1689041459.138176,46
1689041459.1881762,45
1689041459.2381718,45
1689041459.2881758,41
1689041459.3381712,37
1689041459.3881757,33
1689041459.4381719,30
1689041459.4878018,29
1689041459.5381396,29
1689041459.5875545,28
1689041459.6376011,33
1689041459.687606,53
1689041459.7376013,65
1689041459.7706013,63
1689041459.8206003,59
1689041459.870605,53
1689041459.9206047,47
1689041459.9706013,44
1689041460.0205998,44
1689041460.0706007,42
1689041460.1206045,38
1689041460.1706004,33
1689041460.2206044,30
1689041460.2706,29
1689041460.3206017,28
1689041460.370601,28
1689041460.420604,28
1689041460.4706,27
1689041460.5206053,36
1689041460.5706003,55
1689041460.6206038,66
1689041460.670604,62
1689041460.7206037,56
1689041460.7536051,50
1689041460.8095992,46
1689041460.8596034,45
1689041460.909599,44
1689041460.9705992,40
1689041461.0206044,35
1689041461.070603,31
1689041461.120598,29
1689041461.1705987,28
1689041461.2205985,28
1689041461.2705986,28
1689041461.3205984,27
1689041461.3705986,26
1689041461.420598,25
1689041461.4705985,24
1689041461.5206022,24
1689041461.570598,37
1689041461.6206021,60
1689041461.6705978,71
1689041461.720602,65
1689041461.7546017,58
1689041461.8045979,55
1689041461.8546023,49
1689041461.9046035,46
1689041461.9546027,44
1689041462.0045974,40
1689041462.0545976,36
1689041462.104597,31
1689041462.1545982,28
1689041462.2045972,27
1689041462.254601,27
1689041462.3046007,26
1689041462.3545976,25
1689041462.4045963,24
1689041462.4545963,23
1689041462.5045965,21
1689041462.5545964,21
1689041462.6046007,20
1689041462.6545966,25
1689041462.7056003,43
1689041462.7426007,63
1689041462.7876003,65
1689041462.8375955,59
1689041462.8875952,52
1689041462.9375958,46
1689041462.9875963,43
1689041463.0376003,43
1689041463.0875947,42
1689041463.1375957,39
1689041463.1875994,35
1689041463.2375958,33
1689041463.2875998,33
1689041463.3375952,35
1689041463.3875954,35
1689041463.437599,32
1689041463.4885988,29
1689041463.5375955,28
1689041463.5875986,27
1689041463.6375952,27
1689041463.6875956,36
1689041463.7375987,58
1689041463.7705986,67
1689041463.820599,65
1689041463.8705983,57
1689041463.9205935,50
1689041463.9705944,44
1689041464.0205977,42
1689041464.070594,41
1689041464.120594,40
1689041464.170598,35
1689041464.2205944,29
1689041464.2705977,25
1689041464.3205974,23
1689041464.370968,22
1689041464.4204812,23
1689041464.4704168,23
1689041464.5204163,23
1689041464.5704155,22
1689041464.6204207,21
1689041464.6704152,24
1689041464.7204175,41
1689041464.755416,59
1689041464.804416,61
1689041464.854416,55
1689041464.9044197,46
1689041464.9544156,40
1689041465.0054157,39
1689041465.0544198,41
1689041465.104416,42
1689041465.1544194,39
1689041465.2044153,34
1689041465.2544143,31
1689041465.3044193,30
1689041465.3544152,30
1689041465.404415,31
1689041465.4544141,31
1689041465.5044188,32
1689041465.5554147,38
1689041465.6054144,52
1689041465.655424,63
1689041465.7044187,59
1689041465.7434137,51
1689041465.7904146,45
1689041465.8414145,40
1689041465.8904183,40
1689041465.9414134,41
1689041465.9904141,40
1689041466.040418,35
1689041466.090418,31
1689041466.1404176,27
1689041466.190418,25
1689041466.2404172,24
1689041466.2904174,24
1689041466.340418,24
1689041466.390415,23
1689041466.440417,23
1689041466.490413,31
1689041466.540413,52
1689041466.590414,67
1689041466.6414142,64
1689041466.6912537,56
1689041466.7412534,48
1689041466.7742574,43
1689041466.824252,43
1689041466.8742535,45
1689041466.9242527,44
1689041466.9742575,41
1689041467.0242567,37
1689041467.0742576,34
1689041467.1242518,31
1689041467.1742558,31
1689041467.224251,30
1689041467.274253,29
1689041467.3232517,30
1689041467.3742561,42
1689041467.424257,61
1689041467.4742553,65
1689041467.5242512,59
1689041467.5742524,51
1689041467.624256,46
1689041467.6742518,42
1689041467.724252,42
1689041467.7582517,41
1689041467.813251,39
1689041467.8632526,34
1689041467.9132519,29
1689041467.9722545,26
1689041468.0222502,23
1689041468.0722513,22
1689041468.1222498,22
1689041468.1722548,23
1689041468.2222493,23
1689041468.2721884,22
1689041468.3218699,25
1689041468.3718686,40
1689041468.4218695,57
1689041468.4718692,58
1689041468.5218697,52
1689041468.5718732,46
1689041468.6218686,43
1689041468.6718733,43
1689041468.7218688,45
1689041468.754869,43
1689041468.8048728,41
1689041468.854868,37
1689041468.9048693,34
1689041468.9548683,32
1689041469.0048726,31
1689041469.0548723,30
1689041469.1048725,29
1689041469.1548681,28
1689041469.204868,34
1689041469.2548673,50
1689041469.3048723,61
1689041469.354868,59
1689041469.4048681,54
1689041469.4548676,49
1689041469.5048718,44
1689041469.5548682,42
1689041469.6048715,41
1689041469.6548667,37
1689041469.7048712,31
1689041469.7438672,28
1689041469.7908716,27
1689041469.840867,27
1689041469.8908672,27
1689041469.9408662,27
1689041469.9908667,26
1689041470.040871,25
1689041470.0908678,24
1689041470.1408706,24
1689041470.1908658,28
1689041470.2408705,42
1689041470.290866,57
1689041470.3408709,57
1689041470.3908665,51
1689041470.4418654,45
1689041470.490866,42
1689041470.5408716,44
1689041470.59087,45
1689041470.64087,42
1689041470.6908648,38
1689041470.7408705,33
1689041470.7748713,30
1689041470.8248708,29
1689041470.8748696,28
1689041470.9248652,28
1689041470.974865,27
1689041471.0248654,27
1689041471.0748692,30
1689041471.124865,44
1689041471.174869,60
1689041471.224865,62
1689041471.2748687,57
1689041471.3248687,52
1689041471.3748696,48
1689041471.4248686,46
1689041471.4748685,45
1689041471.5248642,43
1689041471.5748684,39
1689041471.624864,36
1689041471.674864,33
1689041471.724864,31
1689041471.7578633,30
1689041471.807868,30
1689041471.8578646,29
1689041471.9078677,28
1689041471.9578636,27
1689041472.0078628,33
1689041472.0578675,49
1689041472.107863,63
1689041472.1578674,61
1689041472.2078674,55
1689041472.2578638,50
1689041472.307863,47
1689041472.3578622,46
1689041472.407867,45
1689041472.4578676,41
1689041472.5078685,37
1689041472.557867,33
1689041472.6078663,30
1689041472.6578636,29
1689041472.7078617,29
1689041472.7438624,28
1689041472.7938623,28
1689041472.843867,26
1689041472.893866,29
1689041472.9548614,44
1689041473.0048661,59
1689041473.0548615,58
1689041473.1048656,52
1689041473.1548607,47
1689041473.2048616,44
1689041473.2548654,44
1689041473.3048623,44
1689041473.354865,41
1689041473.404863,38
1689041473.4548652,34
1689041473.505865,30
1689041473.5548613,29
1689041473.604861,29
1689041473.654866,29
1689041473.704865,28
1689041473.7438645,30
1689041473.793861,40
1689041473.8438652,57
1689041473.8938603,60
1689041473.9548602,53
1689041474.0048602,46
1689041474.055057,42
1689041474.1045063,40
1689041474.1545115,39
1689041474.2045062,34
1689041474.254511,28
1689041474.304506,22
1689041474.3545105,19
1689041474.4045067,18
1689041474.4545112,17
1689041474.5045063,17
1689041474.5545058,17
1689041474.6067677,20
1689041474.6569052,33
1689041474.7069046,46
1689041474.7439091,49
1689041474.8079095,45
1689041474.857905,35
1689041474.90791,34
1689041474.9579084,42
1689041475.007908,49
1689041475.0589051,48
1689041475.1079032,40
1689041475.1579046,31
1689041475.2079046,26
1689041475.2579093,24
1689041475.3079097,32
1689041475.3579028,57
1689041475.4082422,79
1689041475.4582555,77
1689041475.507913,64
1689041475.5579126,51
1689041475.607913,44
1689041475.6579137,47
1689041475.707918,51
1689041475.7439122,48
1689041475.7919168,43
1689041475.8419173,37
1689041475.8919168,31
1689041475.9419131,27
1689041475.991917,32
1689041476.0419123,57
1689041476.0919166,84
1689041476.1419165,86
1689041476.1919162,74
1689041476.2419126,61
1689041476.2919164,52
1689041476.341912,51
1689041476.3919158,52
1689041476.4419117,47
1689041476.4919157,38
1689041476.5419745,30
1689041476.5919163,25
1689041476.6419146,28
1689041476.6919158,52
1689041476.7419114,80
1689041476.7749107,82
1689041476.824915,75
1689041476.8749113,63
1689041476.9249148,52
1689041476.9749107,47
1689041477.0249112,46
1689041477.0749142,42
1689041477.1249146,35
1689041477.1749105,26
1689041477.2249146,20
1689041477.2749097,19
1689041477.3249145,37
1689041477.374914,67
1689041477.4249141,77
1689041477.4749103,70
1689041477.5249143,61
1689041477.5749092,51
1689041477.624914,44
1689041477.6749096,43
1689041477.7249134,40
1689041477.7589147,33
1689041477.8089135,27
1689041477.8589134,20
1689041477.9089093,16
1689041477.9589133,16
1689041478.0089145,15
1689041478.0589085,23
1689041478.1089199,50
1689041478.1589134,74
1689041478.2089665,74
1689041478.2589085,70
1689041478.3089085,63
1689041478.3589132,52
1689041478.4089084,43
1689041478.4589126,38
1689041478.5089123,31
1689041478.5589075,22
1689041478.6089125,15
1689041478.658912,12
1689041478.708908,10
1689041478.7449074,10
1689041478.7919118,9
1689041478.8419077,7
1689041478.891913,5
1689041478.9419086,4
1689041478.9919136,4
1689041479.041908,11
1689041479.0919075,42
1689041479.1419072,74
1689041479.1919112,75
1689041479.241907,67
1689041479.291912,60
1689041479.3419113,52
1689041479.391911,47
1689041479.4419067,45
1689041479.4919107,40
1689041479.5419066,32
1689041479.5919104,26
1689041479.6419113,22
1689041479.691907,20
1689041479.7419105,20
1689041479.7749069,21
1689041479.8249106,21
1689041479.874906,19
1689041479.9249098,23
1689041479.9749055,47
1689041480.0249057,75
1689041480.07491,77
1689041480.124907,68
1689041480.1749096,58
1689041480.2249098,49
1689041480.2749057,47
1689041480.32491,47
1689041480.3749096,42
1689041480.4249053,35
1689041480.4749098,25
1689041480.5249104,21
1689041480.5749042,20
1689041480.6249094,19
1689041480.6749046,17
1689041480.7249048,15
1689041480.7589045,21
1689041480.8089058,39
1689041480.858904,71
1689041480.908909,79
1689041480.9659042,71
1689041481.0139039,63
1689041481.063908,54
1689041481.1139038,46
1689041481.1639035,43
1689041481.2139077,39
1689041481.2639077,31
1689041481.3139036,23
1689041481.363903,17
1689041481.4139025,14
1689041481.4639072,13
1689041481.5139031,13
1689041481.5639033,12
1689041481.6139078,10
1689041481.6639078,9
1689041481.7139032,12
1689041481.7479026,58
1689041481.7979066,74
1689041481.847903,83
1689041481.8979073,73
1689041481.9559028,63
1689041482.0059016,52
1689041482.0559027,47
1689041482.1059067,45
1689041482.1556013,40
1689041482.2055821,32
1689041482.2558143,23
1689041482.3058157,18
1689041482.3558104,15
1689041482.4058142,15
1689041482.45581,14
1689041482.505809,12
1689041482.5558116,10
1689041482.6058142,11
1689041482.6598098,34
1689041482.7088087,72
1689041482.744814,84
1689041482.8088088,72
1689041482.8588092,61
1689041482.9088132,52
1689041482.9588134,48
1689041483.0088096,48
1689041483.0588083,44
1689041483.1088138,36
1689041483.1588092,28
1689041483.2088087,22
1689041483.2588086,19
1689041483.3088129,18
1689041483.3588126,18
1689041483.4088137,16
1689041483.4588077,15
1689041483.5088122,22
1689041483.5588124,54
1689041483.6088123,84
1689041483.658808,81
1689041483.708812,65
1689041483.7448123,52
1689041483.7918077,45
1689041483.8418133,42
1689041483.891812,44
1689041483.9418118,42
1689041483.991808,34
1689041484.0418124,23
1689041484.091813,15
1689041484.1418114,13
1689041484.1918116,18
1689041484.2418113,27
1689041484.291807,33
1689041484.3418112,35
1689041484.391807,46
1689041484.4418106,72
1689041484.4918115,85
1689041484.5418108,81
1689041484.5918107,65
1689041484.6418083,49
1689041484.6918056,41
1689041484.7418108,44
1689041484.775811,42
1689041484.8258116,38
1689041484.8758104,29
1689041484.925806,21
1689041484.97581,15
1689041485.0258055,13
1689041485.075811,13
1689041485.1258051,13
1689041485.17581,13
1689041485.2258053,22
1689041485.2758107,57
1689041485.3258064,92
1689041485.3758092,91
1689041485.425805,75
1689041485.489809,56
1689041485.5398042,49
1689041485.589809,49
1689041485.6398087,50
1689041485.6898046,43
1689041485.7398095,33
1689041485.7728043,24
1689041485.8228037,19
1689041485.8728037,16
1689041485.9233081,15
1689041485.9723043,16
1689041486.0233033,16
1689041486.072305,16
1689041486.1223083,36
1689041486.1723042,77
1689041486.222308,98
1689041486.2723076,87
1689041486.3223038,69
1689041486.3723075,54
1689041486.4223034,48
1689041486.4863074,51
1689041486.536303,47
1689041486.5863073,38
1689041486.6363046,27
1689041486.6863027,19
1689041486.736307,15
1689041486.7763078,14
1689041486.826302,15
1689041486.875303,15
1689041486.9253066,18
1689041486.9753075,45
1689041487.0253022,85
1689041487.0753016,96
1689041487.1253023,80
1689041487.1753066,61
1689041487.2253063,49
1689041487.2753015,47
1689041487.3253024,51
1689041487.3753016,47
1689041487.4263065,38
1689041487.4763057,27
1689041487.5253062,18
1689041487.5753012,13
1689041487.6253057,12
1689041487.6753013,14
1689041487.7253017,15
1689041487.7593052,23
1689041487.8083048,43
1689041487.858301,85
1689041487.9083014,98
1689041487.9583056,82
1689041488.0083008,62
1689041488.0583048,49
1689041488.1083055,47
1689041488.1582997,50
1689041488.2083004,45
1689041488.2583008,36
1689041488.308304,25
1689041488.3583004,16
1689041488.4083009,10
1689041488.4583,6
1689041488.508304,4
1689041488.5593045,4
1689041488.6083002,14
1689041488.6582992,36
1689041488.7083037,72
1689041488.7453005,80
1689041488.7922988,64
1689041488.8422995,44
1689041488.8922987,29
1689041488.9422987,28
1689041488.992606,36
1689041489.0431387,39
1689041489.0931334,34
1689041489.1431336,28
1689041489.1931376,26
1689041489.243133,32
1689041489.2931325,40
1689041489.3431327,56
1689041489.3931334,87
1689041489.4571474,108
1689041489.5081365,97
1689041489.557137,59
1689041489.6071322,50
1689041489.657137,48
1689041489.7071319,49
1689041489.7461371,47
1689041489.790133,44
1689041489.8401327,39
1689041489.8901365,34
1689041489.9401321,31
1689041489.9901376,30
1689041490.0401323,31
1689041490.0901382,46
1689041490.1401334,68
1689041490.1901357,73
1689041490.2401316,67
1689041490.2893865,59
1689041490.3402214,52
1689041490.3896086,48
1689041490.440171,48
1689041490.4896,46
1689041490.5399091,41
1689041490.59013,35
1689041490.6394594,31
1689041490.689579,28
1689041490.7392988,27
1689041490.773117,30
1689041490.822471,40
1689041490.8728147,60
1689041490.9224966,68
1689041490.974111,61
1689041491.0236979,53
1689041491.0740273,46
1689041491.123757,43
1689041491.173699,44
1689041491.2241685,42
1689041491.2736342,39
1689041491.3234732,34
1689041491.3735156,31
1689041491.4239504,29
1689041491.4740534,28
1689041491.5236382,36
1689041491.5737538,53
1689041491.6234112,65
1689041491.6737125,62
1689041491.7237163,53
1689041491.7567165,45
1689041491.8067162,42
1689041491.856716,45
1689041491.906711,46
1689041491.958372,44
1689041492.0065806,39
1689041492.0565841,35
1689041492.1065805,33
1689041492.1565852,33
1689041492.2065792,34
1689041492.256584,40
1689041492.3065803,58
1689041492.3565795,69
1689041492.406579,64
1689041492.4565847,56
1689041492.5078285,49
1689041492.5571725,45
1689041492.6071768,45
1689041492.6571765,43
1689041492.7071717,40
1689041492.7461722,34
1689041492.7901762,31
1689041492.8401723,29
1689041492.890176,28
1689041492.9401758,29
1689041492.9901714,29
1689041493.040176,32
1689041493.090176,53
1689041493.140171,68
1689041493.190123,68
1689041493.2402103,61
1689041493.290215,54
1689041493.3402126,48
1689041493.3902142,45
1689041493.440214,44
1689041493.4902093,40
1689041493.540209,36
1689041493.5902138,31
1689041493.6392093,28
1689041493.6892097,27
1689041493.7392137,27
1689041493.7790556,27
1689041493.8270562,27
1689041493.877056,26
1689041493.9270568,37
1689041493.9770563,59
1689041494.0270612,71
1689041494.07706,65
1689041494.1270616,57
1689041494.1770601,50
1689041494.2270596,46
1689041494.2770567,45
1689041494.3270545,43
1689041494.3770547,38
1689041494.4270556,32
1689041494.477055,28
1689041494.5270543,25
1689041494.577062,24
1689041494.6270597,24
1689041494.6770546,24
1689041494.7270608,23
1689041494.7600548,23
1689041494.8100545,28
1689041494.8600545,48
1689041494.9100595,65
1689041494.9600587,63
1689041495.0100586,54
1689041495.0600536,46
1689041495.1100538,42
1689041495.1600547,44
1689041495.2100537,45
1689041495.2600555,41
1689041495.3100579,36
1689041495.3600578,31
1689041495.4100535,28
1689041495.4600575,28
1689041495.510121,28
1689041495.560053,28
1689041495.6100574,35
1689041495.6600575,53
1689041495.7100573,65
1689041495.7460573,60
1689041495.7960575,53
1689041495.846053,44
1689041495.8960536,40
1689041495.9570525,42
1689041496.0070567,43
1689041496.0566192,40
1689041496.1066036,34
1689041496.1566045,29
1689041496.2070754,26
1689041496.256748,25
1689041496.306388,26
1689041496.357,25
1689041496.407238,25
1689041496.4595659,35
1689041496.5065703,57
1689041496.556566,70
1689041496.60657,65
1689041496.6565702,56
1689041496.7065701,48
1689041496.7455661,44
1689041496.7905657,44
1689041496.8405666,45
1689041496.8905654,41
1689041496.94057,35
1689041496.9905694,30
1689041497.0405693,26
1689041497.0905652,25
1689041497.1405642,25
1689041497.1908846,26
1689041497.2411363,25
1689041497.291133,25
1689041497.3411362,35
1689041497.3911312,59
1689041497.4681308,74
1689041497.5181334,63
1689041497.5678558,54
1689041497.6178567,48
1689041497.667856,46
1689041497.717851,45
1689041497.7518513,42
1689041497.8018556,39
1689041497.8518555,32
1689041497.9018552,27
1689041497.956852,25
1689041498.0068555,24
1689041498.056851,24
1689041498.1068552,24
1689041498.156855,23
1689041498.2068548,23
1689041498.2588503,30
1689041498.3088517,53
1689041498.3568506,72
1689041498.4068544,69
1689041498.4568498,62
1689041498.5068495,53
1689041498.5568542,47
1689041498.6068544,45
1689041498.656857,45
1689041498.70685,41
1689041498.7478497,35
1689041498.7908502,31
1689041498.840854,25
1689041498.8908496,19
1689041498.9408536,15
1689041498.9908535,14
1689041499.0408535,16
1689041499.0908492,17
1689041499.1408496,18
1689041499.1908493,26
1689041499.240853,51
1689041499.2908533,65
1689041499.340854,62
1689041499.3908534,52
1689041499.4408536,43
1689041499.490849,40
1689041499.5408528,44
1689041499.5908484,47
1689041499.6408477,45
1689041499.6908526,40
1689041499.7401993,36
1689041499.7734423,34
1689041499.8234358,34
1689041499.87344,35
1689041499.9234357,35
1689041499.9734395,33
1689041500.023435,42
1689041500.0734396,62
1689041500.1234355,69
1689041500.1734529,61
1689041500.2234478,50
1689041500.2734523,42
1689041500.323459,40
1689041500.374452,43
1689041500.4234617,42
1689041500.4734614,38
1689041500.5234654,32
1689041500.573465,27
1689041500.623522,24
1689041500.6734607,24
1689041500.7234612,24
1689041500.757461,25
1689041500.8134646,24
1689041500.8624606,27
1689041500.9124608,45
1689041500.973461,65
1689041501.0234644,64
1689041501.0734644,54
1689041501.1235309,45
1689041501.1734605,40
1689041501.2234607,40
1689041501.27346,43
1689041501.3234637,41
1689041501.3734639,37
1689041501.4234638,31
1689041501.4734635,28
1689041501.5244596,27
1689041501.5734606,29
1689041501.6234634,32
1689041501.6734593,35
1689041501.7234635,45
1689041501.7574599,63
1689041501.8074594,70
1689041501.8574638,65
1689041501.9074643,54
1689041501.957459,44
1689041502.0074635,41
1689041502.0574641,42
1689041502.1074605,43
1689041502.1574638,39
1689041502.2074587,33
1689041502.257465,28
1689041502.307463,25
1689041502.3574584,24
1689041502.4074588,24
1689041502.4574583,24
1689041502.5074582,24
1689041502.5584629,33
1689041502.607463,56
1689041502.6574578,73
1689041502.707458,70
1689041502.746458,60
1689041502.8104572,51
1689041502.8604612,47
1689041502.9104612,48
1689041502.9604614,47
1689041503.0104609,42
1689041503.060457,37
1689041503.110461,31
1689041503.1604607,28
1689041503.2104576,27
1689041503.260461,27
1689041503.3104603,28
1689041503.3604608,27
1689041503.4104564,30
1689041503.4734569,46
1689041503.5244608,69
1689041503.5744572,62
1689041503.6244562,50
1689041503.6744564,42
1689041503.724455,39
1689041503.7574599,39
1689041503.807461,40
1689041503.8574557,37
1689041503.9084556,31
1689041503.9584563,25
1689041504.0074553,22
1689041504.0574565,21
1689041504.1074567,22
1689041504.1574593,24
1689041504.207456,27
1689041504.257455,37
1689041504.3074548,55
1689041504.3574607,63
1689041504.407456,57
1689041504.4574587,47
1689041504.5074558,40
1689041504.5574605,41
1689041504.6074586,45
1689041504.6574595,44
1689041504.7074547,40
1689041504.746454,37
1689041504.7904582,35
1689041504.8404539,34
1689041504.890454,33
1689041504.9404545,32
1689041504.990458,33
1689041505.0404541,47
1689041505.0904577,64
1689041505.1404579,65
1689041505.1904538,56
1689041505.240454,48
1689041505.2904587,42
1689041505.3404582,42
1689041505.3914537,43
1689041505.440457,40
1689041505.491457,35
1689041505.5404532,30
1689041505.5904567,27
1689041505.641043,26
1689041505.6910443,26
1689041505.7410474,26
1689041505.775043,26
1689041505.8250427,29
1689041505.875043,46
1689041505.9250433,66
1689041505.9750423,67
1689041506.0250468,59
1689041506.0750425,52
1689041506.1250463,46
1689041506.175043,45
1689041506.225042,45
1689041506.2750423,41
1689041506.3250422,37
1689041506.3750467,32
1689041506.425041,29
1689041506.4750416,28
1689041506.5250454,29
1689041506.575047,29
1689041506.6250417,28
1689041506.6750429,39
1689041506.7250452,58
1689041506.7580411,66
1689041506.8080418,62
1689041506.8581142,54
1689041506.908041,48
1689041506.958045,44
1689041507.0080447,44
1689041507.0580444,43
1689041507.1080415,40
1689041507.1580398,34
1689041507.2080402,30
1689041507.2580407,27
1689041507.3080401,27
1689041507.3580446,27
1689041507.4080408,27
1689041507.459044,31
1689041507.5090404,46
1689041507.5580437,63
1689041507.608039,62
1689041507.6580436,53
1689041507.7080412,46
1689041507.7470403,42
1689041507.7920437,42
1689041507.8420396,43
1689041507.892039,41
1689041507.9420395,36
1689041507.9920435,32
1689041508.0420392,28
1689041508.0920386,27
1689041508.1420434,27
1689041508.192043,27
1689041508.2420392,28
1689041508.2920427,43
1689041508.3420393,60
1689041508.3920383,62
1689041508.4560385,53
1689041508.5050385,43
1689041508.5550387,40
1689041508.605042,39
1689041508.655039,38
1689041508.7050395,34
1689041508.7470405,27
1689041508.7940392,22
1689041508.8440418,17
1689041508.894038,15
1689041508.9440415,15
1689041508.9940414,15
1689041509.0440373,17
1689041509.0940378,31
1689041509.1440382,50
1689041509.1940367,55
1689041509.244041,48
1689041509.2940428,39
1689041509.3440375,33
1689041509.3940408,35
1689041509.4440413,39
1689041509.4940405,39
1689041509.5440369,35
1689041509.5940366,31
1689041509.64404,29
1689041509.6940403,27
1689041509.74404,27
1689041509.7820363,40
1689041509.8310397,53
1689041509.881036,64
1689041509.9310348,60
1689041509.9810402,50
1689041510.03104,42
1689041510.0810397,40
1689041510.1310394,41
1689041510.181035,42
1689041510.2310393,39
1689041510.2810352,34
1689041510.3310392,31
1689041510.3810396,29
1689041510.431039,30
1689041510.481035,38
1689041510.5310388,56
1689041510.581035,67
1689041510.631039,60
1689041510.6810389,53
1689041510.731034,46
1689041510.7640393,43
1689041510.8140383,42
1689041510.8640385,41
1689041510.9140348,38
1689041510.9750388,33
1689041511.025034,29
1689041511.075035,28
1689041511.125034,29
1689041511.175038,40
1689041511.2250385,58
1689041511.275038,63
1689041511.3250334,57
1689041511.3750377,50
1689041511.425034,44
1689041511.475034,41
1689041511.5250332,42
1689041511.5750332,40
1689041511.625038,36
1689041511.6750333,31
1689041511.7250376,28
1689041511.7580373,27
1689041511.810038,31
1689041511.8580334,48
1689041511.9090364,62
1689041511.958032,60
1689041512.0090363,53
1689041512.059032,47
1689041512.109036,41
1689041512.159037,40
1689041512.2090323,39
1689041512.2590337,35
1689041512.3090367,30
1689041512.3590326,26
1689041512.4090357,24
1689041512.4590325,23
1689041512.5090365,25
1689041512.5590353,40
1689041512.6090312,59
1689041512.6590323,62
1689041512.7090359,56
1689041512.7470355,50
1689041512.7920308,46
1689041512.8420315,41
1689041512.8920326,40
1689041512.942031,39
1689041512.9920306,34
1689041513.0420349,29
1689041513.092031,25
1689041513.1420352,23
1689041513.1920304,23
1689041513.2420347,23
1689041513.292035,23
1689041513.342034,23
1689041513.3920348,35
1689041513.4420302,58
1689041513.49203,62
1689041513.5420423,56
1689041513.59203,50
1689041513.64203,44
1689041513.6920314,40
1689041513.742034,40
1689041513.7750332,38
1689041513.825043,35
1689041513.8750331,30
1689041513.9250305,27
1689041513.975033,25
1689041514.0250292,24
1689041514.0750332,24
1689041514.1250286,24
1689041514.175028,24
1689041514.2250295,31
1689041514.275033,47
1689041514.3250299,58
1689041514.375513,54
1689041514.4251127,46
1689041514.4751067,40
1689041514.5251112,38
1689041514.575112,40
1689041514.6251063,40
1689041514.6751108,36
1689041514.725107,31
1689041514.7591064,28
1689041514.8091106,27
1689041514.8591073,27
1689041514.9091117,27
1689041514.9601068,27
1689041515.0101063,38
1689041515.0601108,55
1689041515.1091073,61
1689041515.1591065,55
1689041515.2091112,48
1689041515.2591054,41
1689041515.30911,40
1689041515.3591096,41
1689041515.4091096,40
1689041515.4591055,35
1689041515.5091093,31
1689041515.559105,28
1689041515.609105,28
1689041515.6590643,29
1689041515.708824,28
1689041515.7477894,27
1689041515.7915645,28
1689041515.841561,41
1689041515.8915608,60
1689041515.941565,64
1689041515.9915602,56
1689041516.0415602,50
1689041516.0915606,43
1689041516.1414483,38
1689041516.1914465,37
1689041516.241451,35
1689041516.291446,32
1689041516.3413332,28
1689041516.3923326,25
1689041516.441333,24
1689041516.4913368,24
1689041516.5417025,26
1689041516.5917056,29
1689041516.6417012,31
1689041516.6917026,36
1689041516.7417016,51
1689041516.775705,63
1689041516.8257055,63
1689041516.875703,54
1689041516.9257052,45
1689041516.9757013,40
1689041517.0257075,38
1689041517.0757055,37
1689041517.125702,35
1689041517.1757004,31
1689041517.2257009,28
1689041517.275706,25
1689041517.3257048,24
1689041517.375704,23
1689041517.4257002,24
1689041517.475704,26
1689041517.5257,30
1689041517.5757,40
1689041517.6257036,57
1689041517.6757002,63
1689041517.7257037,56
1689041517.758704,47
1689041517.8087037,42
1689041517.8586998,38
1689041517.908703,37
1689041517.9586995,35
1689041518.0087004,29
1689041518.058699,25
1689041518.1086988,22
1689041518.1586998,22
1689041518.2086997,22
1689041518.2586994,21
1689041518.3086987,22
1689041518.3587027,24
1689041518.4096982,29
1689041518.4597025,46
1689041518.508704,65
1689041518.5587022,68
1689041518.6087022,59
1689041518.6587105,49
1689041518.7086978,41
1689041518.7476997,39
1689041518.7917023,38
1689041518.8416977,36
1689041518.8926969,30
1689041518.9416983,23
1689041518.9917018,18
1689041519.0417132,17
1689041519.0916977,16
1689041519.1416976,16
1689041519.1917014,17
1689041519.2417011,21
1689041519.291701,35
1689041519.3416984,57
1689041519.3917007,62
1689041519.4416971,61
1689041519.4917014,52
1689041519.5416965,44
1689041519.5917015,38
1689041519.6416962,37
1689041519.6917007,37
1689041519.7416964,33
1689041519.775701,28
1689041519.8256965,24
1689041519.8756971,21
1689041519.9257002,19
1689041519.9756958,19
1689041520.0257,19
1689041520.075697,19
1689041520.1257002,30
1689041520.1756997,51
1689041520.2256994,63
1689041520.2756958,60
1689041520.3256998,53
1689041520.3756955,47
1689041520.4256992,43
1689041520.4756975,43
1689041520.5256994,42
1689041520.5756955,39
1689041520.625695,34
1689041520.6756957,30
1689041520.7256947,26
1689041520.7586985,25
1689041520.814695,24
1689041520.8645847,24
1689041520.9145856,30
1689041520.975591,46
1689041521.025589,61
1689041521.0755908,59
1689041521.1255887,52
1689041521.1755846,46
1689041521.2251897,43
1689041521.2761846,44
1689041521.3261914,44
1689041521.3761857,40
1689041521.4261851,36
1689041521.476185,32
1689041521.5251892,28
1689041521.5761845,27
1689041521.6251886,26
1689041521.6751847,29
1689041521.7261896,40
1689041521.7591846,51
1689041521.809185,51
1689041521.85919,47
1689041521.9081855,30
1689041521.9591882,19
1689041522.0091896,19
1689041522.0591843,25
1689041522.108185,25
1689041522.1591842,20
1689041522.209184,14
1689041522.2591841,12
1689041522.309184,12
1689041522.3591838,10
1689041522.4091835,9
1689041522.461188,30
1689041522.5101902,65
1689041522.5581882,85
1689041522.6091845,83
1689041522.6591885,70
1689041522.7091835,58
1689041522.7481842,57
1689041522.792183,60
1689041522.8431828,61
1689041522.8931828,53
1689041522.9421866,42
1689041522.9921823,32
1689041523.0421836,24
1689041523.0927646,25
1689041523.1423404,55
1689041523.1933403,83
1689041523.2423441,83
1689041523.2923408,68
1689041523.3423407,52
1689041523.39234,40
1689041523.4423401,41
1689041523.4923441,46
1689041523.5423403,45
1689041523.592344,38
1689041523.6423442,30
1689041523.692344,28
1689041523.7423398,30
1689041523.7753434,42
1689041523.8253438,60
1689041523.8753402,85
1689041523.9253433,88
1689041523.975339,77
1689041524.025339,63
1689041524.0753436,53
1689041524.125344,53
1689041524.1753426,53
1689041524.225344,44
1689041524.2753386,35
1689041524.325344,28
1689041524.3753426,24
1689041524.4253383,24
1689041524.4753385,41
1689041524.525339,74
1689041524.5753465,89
1689041524.6253421,82
1689041524.675338,68
1689041524.725342,55
1689041524.7593377,51
1689041524.8093376,52
1689041524.859338,51
1689041524.909337,44
1689041524.9593415,36
1689041525.0093412,29
1689041525.059342,27
1689041525.1103375,44
1689041525.1612027,79
1689041525.2092075,96
1689041525.2592027,89
1689041525.309202,76
1689041525.3592067,61
1689041525.4102085,53
1689041525.4592063,54
1689041525.5092063,52
1689041525.5592034,44
1689041525.6102028,36
1689041525.6592023,29
1689041525.7092018,26
1689041525.7472024,26
1689041525.7922063,47
1689041525.8422031,81
1689041525.8922017,94
1689041525.9422057,88
1689041525.9932008,80
1689041526.0422053,64
1689041526.0922058,52
1689041526.1422005,48
1689041526.1922057,43
1689041526.2422018,34
1689041526.2932012,24
1689041526.3432052,15
1689041526.3922014,10
1689041526.442201,5
1689041526.4922066,0
1689041526.543201,0
1689041526.5922072,8
1689041526.6422048,53
1689041526.6922014,86
1689041526.742206,88
1689041526.775201,78
1689041526.8252003,71
1689041526.8752046,58
1689041526.9251993,49
1689041526.9762008,48
1689041527.0252,46
1689041527.0752,37
1689041527.1251998,26
1689041527.175204,17
1689041527.2251997,13
1689041527.2752035,12
1689041527.3252048,12
1689041527.3752036,10
1689041527.4252007,12
1689041527.4902406,55
1689041527.539203,85
1689041527.5891988,83
1689041527.6392033,72
1689041527.6891987,60
1689041527.7392027,49
1689041527.7732027,44
1689041527.8241997,43
1689041527.8732002,37
1689041527.9241984,26
1689041527.9752023,17
1689041528.0251992,11
1689041528.0762029,10
1689041528.1252036,10
1689041528.1752021,11
1689041528.226198,11
1689041528.275198,13
1689041528.328198,40
1689041528.3782015,75
1689041528.4552038,82
1689041528.5041978,58
1689041528.5532012,45
1689041528.603197,41
1689041528.6532009,43
1689041528.703197,40
1689041528.748201,30
1689041528.788197,23
1689041528.8372009,14
1689041528.8871968,10
1689041528.9371965,10
1689041528.9891965,10
1689041529.0392005,9
1689041529.0891967,14
1689041529.1391964,47
1689041529.1901965,75
1689041529.2391953,90
1689041529.289196,79
1689041529.3391962,67
1689041529.3892,55
1689041529.4392002,46
1689041529.4901958,43
1689041529.539196,39
1689041529.5891955,29
1689041529.6391995,18
1689041529.6891994,11
1689041529.7391956,9
1689041529.7731957,8
1689041529.8241994,8
1689041529.8731954,8
1689041529.9261966,7
1689041529.976199,21
1689041530.0262015,63
1689041530.0761952,94
1689041530.1261988,84
1689041530.176199,70
1689041530.2271945,58
1689041530.2771947,49
1689041530.3261943,47
1689041530.377198,42
1689041530.4261944,32
1689041530.4761984,22
1689041530.5261984,15
1689041530.5761979,11
1689041530.6271944,10
1689041530.6761947,11
1689041530.7261937,11
1689041530.7591944,10
1689041530.8091981,14
1689041530.861194,45
1689041530.9101987,87
1689041530.9591975,94
1689041531.0091927,79
1689041531.0601933,64
1689041531.110192,52
1689041531.1601932,48
1689041531.2091923,47
1689041531.2601936,41
1689041531.309192,30
1689041531.3601933,20
1689041531.4091926,12
1689041531.4591925,9
1689041531.5091963,9
1689041531.559193,9
1689041531.6091926,9
1689041531.6591961,8
1689041531.7111962,26
1689041531.7481966,70
1689041531.7931926,94
1689041531.8421962,90
1689041531.8921933,71
1689041531.9431915,59
1689041531.993196,46
1689041532.0421915,44
1689041532.0921915,46
1689041532.142196,39
1689041532.193197,26
1689041532.2421951,16
1689041532.292191,10
1689041532.3421912,8
1689041532.3921947,8
1689041532.442191,9
1689041532.4931965,9
1689041532.5421958,16
1689041532.5921967,61
1689041532.6421947,95
1689041532.6921918,92
1689041532.7421916,72
1689041532.7761905,54
1689041532.8271961,46
1689041532.8761902,45
1689041532.9271946,49
1689041532.976194,44
1689041533.0261898,33
1689041533.0761898,22
1689041533.1261938,13
1689041533.17619,9
1689041533.22719,9
1689041533.2761939,11
1689041533.3261936,12
1689041533.3761933,29
1689041533.4261894,72
1689041533.4761891,97
1689041533.526193,85
1689041533.5761883,63
1689041533.6261928,47
1689041533.6761892,42
1689041533.726193,48
1689041533.7591925,48
1689041533.8091927,41
1689041533.8591945,29
1689041533.9091883,18
1689041533.9601922,12
1689041534.0091887,10
1689041534.0591927,11
1689041534.1091888,14
1689041534.1611886,34
1689041534.2121882,78
1689041534.2591918,102
1689041534.3091905,63
1689041534.3591936,52
1689041534.4091876,44
1689041534.4591918,43
1689041534.5091915,46
1689041534.5591877,45
1689041534.6091874,40
1689041534.6591914,34
1689041534.709189,29
1689041534.7491956,27
1689041534.7951875,26
1689041534.8451924,27
1689041534.8951907,31
1689041534.9451907,55
1689041534.9951904,70
1689041535.046187,65
1689041535.0961866,54
1689041535.1451862,45
1689041535.19519,43
1689041535.245192,46
1689041535.2951915,46
1689041535.3451898,40
1689041535.3961902,35
1689041535.445186,30
1689041535.4951859,28
1689041535.54519,27
1689041535.5951896,28
1689041535.6451902,39
1689041535.6951857,58
1689041535.7461858,63
1689041535.7841854,50
1689041535.8321853,40
1689041535.882185,31
1689041535.9321895,30
1689041535.9941888,35
1689041536.0431855,35
1689041536.0931852,30
1689041536.1431885,25
1689041536.1931887,22
1689041536.2431846,23
1689041536.293189,28
1689041536.3431842,40
1689041536.3931847,60
1689041536.4431837,72
1689041536.4931881,69
1689041536.5431843,57
1689041536.5931878,45
1689041536.6441839,41
1689041536.6931875,43
1689041536.7431836,44
1689041536.7761898,40
1689041536.827184,37
1689041536.8761837,32
1689041536.926188,29
1689041536.977106,27
1689041537.0267127,34
1689041537.0767086,53
1689041537.126713,67
1689041537.176714,62
1689041537.2267122,51
1689041537.2767124,42
1689041537.3267136,41
1689041537.37671,47
1689041537.4267073,49
1689041537.4767084,45
1689041537.5267088,40
1689041537.5767086,36
1689041537.6267114,33
1689041537.6767073,41
1689041537.7267115,63
1689041537.7607114,75
1689041537.8107078,72
1689041537.8607075,63
1689041537.9107118,55
1689041537.9607115,48
1689041538.010707,45
1689041538.0607073,43
1689041538.1107075,39
1689041538.1607108,34
1689041538.2107098,32
1689041538.2617066,31
1689041538.3107061,37
1689041538.3607059,53
1689041538.410782,70
1689041538.4607108,69
1689041538.5107102,59
1689041538.5607069,51
1689041538.6107059,46
1689041538.6607072,45
1689041538.710706,43
1689041538.7487059,40
1689041538.793706,36
1689041538.843707,31
1689041538.8937106,29
1689041538.9437096,39
1689041538.9937057,48
1689041539.043706,67
1689041539.0937095,66
1689041539.1437051,61
1689041539.1937048,54
1689041539.2437088,47
1689041539.2937088,44
1689041539.343709,43
1689041539.3937087,40
1689041539.4437048,35
1689041539.4937088,31
1689041539.5437083,29
1689041539.5937045,28
1689041539.6437047,34
1689041539.6937087,52
1689041539.7437046,0
1689041539.776704,0
1689041539.826708,0
1689041539.8767052,0
1689041539.9267046,0
1689041539.976708,0
1689041540.0267036,0
1689041540.0767076,0
1689041540.1267078,0
1689041540.1767035,0
1689041540.2267075,0
1689041540.2767026,0
1689041540.326703,0
1689041540.376707,0
1689041540.4267027,8
1689041540.4767032,38
1689041540.5267072,64
1689041540.576707,65
1689041540.6267018,59
1689041540.6767063,49
1689041540.726703,40
1689041540.7607021,39
1689041540.8107035,38
1689041540.8607037,34
1689041540.9107063,28
1689041540.969706,21
1689041541.0187023,15
1689041541.0687027,13
1689041541.1187024,13
1689041541.1687057,15
1689041541.218703,16
1689041541.2687056,15
1689041541.3187017,18
1689041541.3687057,48
1689041541.418702,76
1689041541.4687057,83
1689041541.5187051,73
1689041541.5687056,65
1689041541.6187024,53
1689041541.6687052,46
1689041541.718701,46
1689041541.752701,43
1689041541.8027055,40
1689041541.8527014,33
1689041541.9027011,28
1689041541.9607008,26
1689041542.0087047,26
1689041542.0587003,25
1689041542.1087003,22
1689041542.1607046,22
1689041542.2107038,44
1689041542.2607002,72
1689041542.3107,76
1689041542.3607,67
1689041542.410704,59
1689041542.4607005,48
1689041542.5107036,42
1689041542.5606995,40
1689041542.6107054,36
1689041542.6606994,28
1689041542.7107,21
1689041542.7497032,16
1689041542.7937038,14
1689041542.8436983,13
1689041542.8937032,10
1689041542.9437034,6
1689041542.9937003,3
1689041543.0437028,2
1689041543.093699,18
1689041543.1437027,61
1689041543.1936984,79
1689041543.2436986,75
1689041543.2936983,66
1689041543.343702,56
1689041543.3936977,49
1689041543.4437027,48
1689041543.4937038,45
1689041543.5437021,38
1689041543.5936975,28
1689041543.6436968,22
1689041543.693702,18
1689041543.7436986,16
1689041543.7777014,15
1689041543.8276975,13
1689041543.8777013,11
1689041543.9276972,13
1689041543.9777012,39
1689041544.0276978,67
1689041544.0777009,70
1689041544.127701,62
1689041544.1777005,52
1689041544.2277057,41
1689041544.2777007,39
1689041544.3276966,40
1689041544.3777,38
1689041544.4276981,32
1689041544.4916968,27
1689041544.5416965,24
1689041544.5917008,21
1689041544.6417,18
1689041544.6916966,15
1689041544.7417,13
1689041544.7746994,22
1689041544.8276956,40
1689041544.877702,68
1689041544.9277005,70
1689041544.9776993,57
1689041545.0277004,45
1689041545.0776994,37
1689041545.1277018,35
1689041545.1786995,37
1689041545.227695,35
1689041545.2776957,29
1689041545.3276992,23
1689041545.377699,18
1689041545.4276948,17
1689041545.4776938,19
1689041545.5276942,24
1689041545.5776947,25
1689041545.6276987,21
1689041545.6776984,28
1689041545.727698,54
1689041545.7606974,70
1689041545.810699,67
1689041545.860694,54
1689041545.9102578,41
1689041545.9602532,32
1689041546.0102534,32
1689041546.0602589,37
1689041546.1102543,35
1689041546.160252,29
1689041546.2110307,22
1689041546.2606843,19
1689041546.310687,20
1689041546.3606884,24
1689041546.4106827,24
1689041546.4616866,20
1689041546.5106816,18
1689041546.5616949,37
1689041546.6106865,64
1689041546.660683,70
1689041546.7106862,58
1689041546.7496862,45
1689041546.7946827,40
1689041546.844686,32
1689041546.894686,35
1689041546.944686,38
1689041546.994682,34
1689041547.0446858,29
1689041547.0946815,24
1689041547.1446815,20
1689041547.1946855,18
1689041547.244686,19
1689041547.294682,21
1689041547.3446853,21
1689041547.3946826,34
1689041547.444685,58
1689041547.4946852,68
1689041547.544686,60
1689041547.594685,47
1689041547.6446807,36
1689041547.6946847,29
1689041547.744681,32
1689041547.7776845,37
1689041547.8276808,37
1689041547.87768,32
1689041547.9276807,27
1689041547.9778805,23
1689041548.0278797,21
1689041548.077885,20
1689041548.1278844,19
1689041548.1778858,16
1689041548.2278802,15
1689041548.2778792,35
1689041548.3278842,65
1689041548.3778799,74
1689041548.427884,61
1689041548.4778838,43
1689041548.5278838,31
1689041548.5778837,29
1689041548.6278834,36
1689041548.6778793,40
1689041548.7278838,37
1689041548.7608836,32
1689041548.8108807,31
1689041548.8608832,26
1689041548.9108832,20
1689041548.960883,17
1689041549.0108836,16
1689041549.0608842,14
1689041549.1128829,20
1689041549.162883,44
1689041549.2108786,68
1689041549.260883,67
1689041549.310879,56
1689041549.3608828,45
1689041549.4108784,40
1689041549.4608822,45
1689041549.5108795,51
1689041549.560877,47
1689041549.6119795,37
1689041549.6621144,26
1689041549.712114,18
1689041549.750115,15
1689041549.7951107,14
1689041549.84511,15
1689041549.895114,14
1689041549.9451149,16
1689041549.995114,40
1689041550.0451164,71
1689041550.0951157,73
1689041550.1451154,63
1689041550.1951087,51
1689041550.24511,43
1689041550.2951155,45
1689041550.3451087,47
1689041550.3951087,43
1689041550.4441104,34
1689041550.4951093,25
1689041550.54511,20
1689041550.5951092,18
1689041550.6451087,19
1689041550.6951137,20
1689041550.745109,25
1689041550.7781084,52
1689041550.8281212,66
1689041550.8781087,75
1689041550.928113,63
1689041550.9781082,47
1689041551.0281072,37
1689041551.0781078,35
1689041551.1281118,38
1689041551.1781077,38
1689041551.2281137,31
1689041551.2781081,24
1689041551.3281124,17
1689041551.3781073,13
1689041551.428121,12
1689041551.4921112,12
1689041551.5421093,13
1689041551.592111,25
1689041551.6421072,55
1689041551.6921077,77
1689041551.742124,72
1689041551.7761111,58
1689041551.8261113,49
1689041551.8751082,41
1689041551.926112,40
1689041551.9781067,42
1689041552.0281124,40
1689041552.078111,32
1689041552.1281092,24
1689041552.178106,18
1689041552.228111,15
1689041552.2781062,14
1689041552.3281062,14
1689041552.3781059,15
1689041552.4281101,26
1689041552.4781094,56
1689041552.5281112,79
1689041552.5771062,75
1689041552.6281095,61
1689041552.678106,50
1689041552.7281094,44
1689041552.7621105,46
1689041552.8121107,47
1689041552.8621092,43
1689041552.9121056,36
1689041552.9621046,28
1689041553.012105,22
1689041553.0621045,19
1689041553.1121054,18
1689041553.1621096,18
1689041553.2131095,20
1689041553.2641094,40
1689041553.314104,71
1689041553.3621082,81
1689041553.4121053,70
1689041553.4621089,56
1689041553.5121033,47
1689041553.5631034,46
1689041553.6121078,48
1689041553.6621037,46
1689041553.7121074,38
1689041553.7511036,26
1689041553.7951086,18
1689041553.845105,7
1689041553.8951073,0
1689041553.9451075,0
1689041553.9951026,4
1689041554.0451076,12
1689041554.0951073,33
1689041554.1451037,58
1689041554.195107,69
1689041554.2451026,68
1689041554.2951083,60
1689041554.3451078,52
1689041554.3951018,50
1689041554.4451036,50
1689041554.4951022,46
1689041554.5451066,38
1689041554.5951061,30
1689041554.6451035,25
1689041554.695102,24
1689041554.745107,30
1689041554.7791061,50
1689041554.8291066,68
1689041554.8791022,75
1689041554.9291058,61
1689041554.979115,44
1689041555.0291054,33
1689041555.0791059,32
1689041555.1291015,40
1689041555.1791022,48
1689041555.2291064,46
1689041555.279106,36
1689041555.3291054,29
1689041555.3791068,26
1689041555.4291015,30
1689041555.4791007,53
1689041555.5291011,81
1689041555.5791044,84
1689041555.6291058,71
1689041555.6791043,57
1689041555.7291062,48
1689041555.7631006,48
1689041555.8181005,49
1689041555.8681011,46
1689041555.9181037,38
1689041555.9791038,30
1689041556.0291045,23
1689041556.0786514,23
1689041556.128651,42
1689041556.1786473,76
1689041556.2286472,88
1689041556.2786515,78
1689041556.3286517,65
1689041556.378651,53
1689041556.428651,50
1689041556.4786508,51
1689041556.5286517,49
1689041556.578647,41
1689041556.628648,33
1689041556.6786506,28
1689041556.7286468,37
1689041556.7616463,67
1689041556.8176463,87
1689041556.8676465,86
1689041556.9176462,75
1689041556.9786468,63
1689041557.0286472,52
1689041557.0786498,49
1689041557.1286457,48
1689041557.1786497,42
1689041557.2286468,35
1689041557.2786496,29
1689041557.3286505,25
1689041557.3786452,36
1689041557.4286454,65
1689041557.4786456,86
1689041557.5286455,82
1689041557.5786521,72
1689041557.628649,61
1689041557.678649,51
1689041557.7286446,48
1689041557.761646,46
1689041557.8176486,41
1689041557.867649,34
1689041557.9176483,26
1689041557.9676485,22
1689041558.0176444,21
1689041558.0676444,29
1689041558.117648,56
1689041558.1676443,81
1689041558.2176437,80
1689041558.267644,71
1689041558.3176477,62
1689041558.367648,51
1689041558.4176502,46
1689041558.4816434,43
1689041558.5316434,38
1689041558.5816472,30
1689041558.631643,24
1689041558.681647,21
1689041558.731648,21
1689041558.7646444,21
1689041558.8146434,24
1689041558.8646429,46
1689041558.9146435,76
1689041558.9656434,80
1689041559.014643,71
1689041559.064643,63
1689041559.1146464,52
1689041559.1646438,45
1689041559.2146425,43
1689041559.2646446,40
1689041559.314646,33
1689041559.3646429,26
1689041559.4146426,22
1689041559.4646475,20
1689041559.5146456,19
1689041559.564646,19
1689041559.6146455,17
1689041559.6646419,15
1689041559.7146454,13
1689041559.7506454,12
1689041559.7976425,12
1689041559.8476453,21
1689041559.8976412,54
1689041559.9476452,79
1689041559.9976454,89
1689041560.0476449,78
1689041560.0976465,64
1689041560.14764,54
1689041560.19764,49
1689041560.2476408,47
1689041560.2976406,41
1689041560.3476443,33
1689041560.3976405,26
1689041560.4476445,21
1689041560.4976413,19
1689041560.5476444,19
1689041560.59764,18
1689041560.647644,16
1689041560.69764,15
1689041560.7476404,23
1689041560.7817001,55
1689041560.8316436,74
1689041560.8816435,78
1689041560.9316401,68
1689041560.9816449,58
1689041561.0316393,49
1689041561.0816433,45
1689041561.1316392,44
1689041561.181643,40
1689041561.231643,31
1689041561.281643,23
1689041561.3316398,18
1689041561.3816428,16
1689041561.4316387,15
1689041561.481644,15
1689041561.5316384,14
1689041561.5816424,13
1689041561.6316388,12
1689041561.6816423,32
1689041561.7316382,66
1689041561.7646391,80
1689041561.814642,74
1689041561.8646376,62
1689041561.9146376,51
1689041561.9646413,44
1689041562.0146418,43
1689041562.064647,42
1689041562.1146412,37
1689041562.164638,29
1689041562.2146363,22
1689041562.2646377,17
1689041562.3146374,15
1689041562.3646376,15
1689041562.4146411,15
1689041562.464637,15
1689041562.5146418,13
1689041562.5646377,16
1689041562.6146407,42
1689041562.6646411,75
1689041562.7146368,79
1689041562.7506404,66
1689041562.7986405,57
1689041562.8486402,47
1689041562.8986368,42
1689041562.9486403,43
1689041562.9986372,41
1689041563.048641,35
1689041563.09864,26
1689041563.14864,20
1689041563.1986399,16
1689041563.2486396,15
1689041563.2986352,15
1689041563.3486395,15
1689041563.3986356,14
1689041563.448635,13
1689041563.498635,23
1689041563.5486398,55
1689041563.598639,82
1689041563.648635,77
1689041563.6986349,63
1689041563.7486386,51
1689041563.7816386,44
1689041563.831635,43
1689041563.8816347,45
1689041563.9316347,42
1689041563.981639,34
1689041564.0316384,26
1689041564.081638,19
1689041564.1316342,16
1689041564.1816342,16
1689041564.231638,16
1689041564.2816339,16
1689041564.3316379,14
1689041564.381638,17
1689041564.4316375,42
1689041564.4816375,75
1689041564.5316343,80
1689041564.5816336,67
1689041564.631637,54
1689041564.6816332,45
1689041564.731637,43
1689041564.7646372,46
1689041564.8146384,44
1689041564.864637,38
1689041564.9146318,29
1689041564.9646366,22
1689041565.0146327,19
1689041565.065632,18
1689041565.1156373,18
1689041565.1656363,18
1689041565.2156324,17
1689041565.2656326,17
1689041565.315632,33
1689041565.3656363,67
1689041565.4156325,84
1689041565.465636,74
1689041565.5156324,59
1689041565.5656357,48
1689041565.6156356,45
1689041565.665633,47
1689041565.7156312,46
1689041565.7516325,39
1689041565.7986355,33
1689041565.8486354,25
1689041565.8986366,20
1689041565.9486356,19
1689041565.998635,19
1689041566.0486317,19
1689041566.0986347,18
1689041566.1486309,18
1689041566.1986349,34
1689041566.2486355,66
1689041566.2986345,81
1689041566.3486345,71
1689041566.3986309,58
1689041566.4486303,47
1689041566.4986343,44
1689041566.5486307,47
1689041566.598634,45
1689041566.64863,38
1689041566.6986341,29
1689041566.7486336,23
1689041566.7816339,20
1689041566.831631,19
1689041566.881634,19
1689041566.9326339,20
1689041566.9816291,19
1689041567.0316296,22
1689041567.0816293,45
1689041567.131629,76
1689041567.1816294,80
1689041567.231628,66
1689041567.2816288,53
1689041567.3316288,46
1689041567.3816292,46
1689041567.4316328,48
1689041567.4816284,43
1689041567.5316324,36
1689041567.5816283,28
1689041567.631632,23
1689041567.6816297,22
1689041567.7316322,22
1689041567.765632,23
1689041567.820632,22
1689041567.870632,21
1689041567.9206324,30
1689041567.9796276,65
1689041568.0296276,83
1689041568.0796268,74
1689041568.1296296,61
1689041568.179629,51
1689041568.2296312,48
1689041568.2796273,50
1689041568.3296268,47
1689041568.3796275,40
1689041568.4296274,32
1689041568.479631,26
1689041568.5296307,23
1689041568.5796268,23
1689041568.6296315,23
1689041568.6796265,22
1689041568.7296257,21
1689041568.7636297,25
1689041568.8136306,40
1689041568.8626304,72
1689041568.9126253,80
1689041568.96263,68
1689041569.0126252,56
1689041569.06263,48
1689041569.112626,46
1689041569.162626,47
1689041569.2126298,43
1689041569.2626297,36
1689041569.3126295,28
1689041569.3626294,24
1689041569.412626,22
1689041569.462625,22
1689041569.5126295,23
1689041569.5626266,22
1689041569.6126254,21
1689041569.662629,24
1689041569.7136288,49
1689041569.751626,78
1689041569.801629,80
1689041569.8516245,68
1689041569.901629,57
1689041569.9626248,50
1689041570.0126293,49
1689041570.0626237,48
1689041570.1126282,42
1689041570.1626282,35
1689041570.2126248,28
1689041570.2626283,24
1689041570.3126278,24
1689041570.3626237,24
1689041570.4126277,24
1689041570.4626281,23
1689041570.5136273,21
1689041570.5646274,30
1689041570.6136239,58
1689041570.6626234,80
1689041570.7126236,75
1689041570.751627,63
1689041570.815627,53
1689041570.8656232,49
1689041570.9156237,49
1689041570.9656267,46
1689041571.0156264,39
1689041571.0656226,31
1689041571.1156235,26
1689041571.1656268,23
1689041571.2156265,23
1689041571.2656262,23
1689041571.3156228,21
1689041571.365623,20
1689041571.4156225,19
1689041571.465395,32
1689041571.5153992,62
1689041571.565395,77
1689041571.6153998,69
1689041571.6653988,59
1689041571.715465,51
1689041571.7513943,47
1689041571.8013945,47
1689041571.8513982,45
1689041571.9013948,39
1689041571.9624076,31
1689041572.0093932,25
1689041572.0603943,22
1689041572.110398,21
1689041572.160398,22
1689041572.2103977,21
1689041572.2603934,20
1689041572.3103979,17
1689041572.3603933,16
1689041572.4103937,29
1689041572.4603975,58
1689041572.5103972,74
1689041572.5603971,67
1689041572.6103976,58
1689041572.6603925,51
1689041572.7103932,47
1689041572.7513967,47
1689041572.7983963,45
1689041572.8483965,39
1689041572.8983924,32
1689041572.9483964,26
1689041572.9983923,24
1689041573.0483966,23
1689041573.098392,23
1689041573.1483915,22
1689041573.198396,20
1689041573.2483916,19
1689041573.2983918,25
1689041573.348396,49
1689041573.398393,72
1689041573.4493906,71
1689041573.499392,63
1689041573.5493956,55
1689041573.5993953,50
1689041573.6493952,49
1689041573.699392,47
1689041573.7493916,41
1689041573.7873917,34
1689041573.8353934,30
1689041573.8853946,26
1689041573.9353948,25
1689041573.9963925,25
1689041574.0463946,24
1689041574.0963945,22
1689041574.1463943,20
1689041574.1963909,19
1689041574.2463906,22
1689041574.29639,47
1689041574.346394,73
1689041574.39639,75
1689041574.4603937,67
1689041574.5103896,58
1689041574.5603905,53
1689041574.61039,52
1689041574.6603897,49
1689041574.7103896,42
1689041574.7513995,36
1689041574.7933931,32
1689041574.84339,29
1689041574.893393,27
1689041574.9433932,26
1689041574.9963892,26
1689041575.046393,24
1689041575.0961978,22
1689041575.1462026,20
1689041575.1962016,23
1689041575.2462015,49
1689041575.2961974,70
1689041575.3461978,70
1689041575.3961973,62
1689041575.4462013,55
1689041575.4961972,50
1689041575.5461972,48
1689041575.5962012,46
1689041575.6462007,40
1689041575.6962006,34
1689041575.746201,28
1689041575.7792006,25
1689041575.8301964,24
1689041575.8791964,24
1689041575.9291968,23
1689041575.9802015,21
1689041576.0291984,19
1689041576.0792,17
1689041576.1301963,16
1689041576.1792,26
1689041576.229196,51
1689041576.2791967,65
1689041576.3291996,60
1689041576.3802,53
1689041576.429197,47
1689041576.4791994,44
1689041576.529196,43
1689041576.5791955,40
1689041576.6291964,34
1689041576.6791952,28
1689041576.7291992,23
1689041576.7631958,21
1689041576.8181953,20
1689041576.8681948,19
1689041576.9181988,17
1689041576.979199,15
1689041577.029197,12
1689041577.0791943,10
1689041577.1291986,10
1689041577.1792004,19
1689041577.229198,41
1689041577.2791982,53
1689041577.3291981,50
1689041577.3791988,44
1689041577.4581985,40
1689041577.5071943,37
1689041577.5571976,35
1689041577.607195,30
1689041577.6571991,24
1689041577.7071948,20
1689041577.7521973,17
1689041577.7941937,17
1689041577.8431935,17
1689041577.8931973,16
1689041577.9431932,15
1689041577.9961936,13
1689041578.0461967,12
1689041578.0961967,12
1689041578.146197,24
1689041578.196194,44
1689041578.246193,48
1689041578.296197,45
1689041578.3461924,41
1689041578.3961926,39
1689041578.4461966,38
1689041578.4961958,38
1689041578.5471961,35
1689041578.5961924,31
1689041578.6461935,26
1689041578.6961958,23
1689041578.747192,22
1689041578.7791922,21
1689041578.8301957,20
1689041578.8791916,18
1689041578.9301913,17
1689041578.9801924,16
1689041579.0301952,15
1689041579.0801911,15
1689041579.130195,25
1689041579.1801903,42
1689041579.2301915,48
1689041579.2801948,50
1689041579.3301907,45
1689041579.3801906,40
1689041579.4301944,39
1689041579.4801905,38
1689041579.5301943,33
1689041579.5801945,23
1689041579.630194,15
1689041579.6801908,10
1689041579.7301958,7
1689041579.763194,6
1689041579.81919,4
1689041579.868197,0
1689041579.9181943,0
1689041579.9781954,0
1689041580.0281887,0
1689041580.0801895,30
1689041580.1301937,54
1689041580.1801903,54
1689041580.23019,50
1689041580.2801933,48
1689041580.330193,45
1689041580.3801932,42
1689041580.4301896,39
1689041580.4801888,32
1689041580.530189,22
1689041580.58019,10
1689041580.6311884,0
1689041580.6801884,0
1689041580.7301924,0
1689041580.7631924,0
1689041580.8131921,0
1689041580.8631887,0
1689041580.913188,0
1689041580.9631922,6
1689041581.014188,28
1689041581.0631871,26
1689041581.1131876,18
1689041581.1631918,11
1689041581.2141876,7
1689041581.2631912,12
1689041581.3131893,14
1689041581.3631914,9
1689041581.4131875,4
1689041581.4631917,1
1689041581.5131874,1
1689041581.5631907,3
1689041581.6141865,5
1689041581.6641912,19
1689041581.7131867,40
1689041581.7521865,45
1689041581.7961912,40
1689041581.846188,29
1689041581.8961916,23
1689041581.9469032,27
1689041581.9969025,29
1689041582.0464058,25
1689041582.0964055,18
1689041582.1464012,11
1689041582.1964061,7
1689041582.246402,6
1689041582.296405,6
1689041582.346401,15
1689041582.3964021,40
1689041582.4464054,57
1689041582.4964013,52
1689041582.5464017,45
1689041582.5964048,41
1689041582.6464005,39
1689041582.6964042,38
1689041582.7464006,38
1689041582.7804048,35
1689041582.8304043,31
1689041582.8804002,25
1689041582.9304042,21
1689041582.9804003,20
1689041583.0304005,29
1689041583.0804043,50
1689041583.1304042,61
1689041583.1804037,55
1689041583.2304037,50
1689041583.2804036,45
1689041583.3304036,39
1689041583.3803995,38
1689041583.4303997,37
1689041583.4943993,30
1689041583.5444036,23
1689041583.594399,18
1689041583.6443994,20
1689041583.694403,39
1689041583.7443986,57
1689041583.7774026,56
1689041583.8274028,51
1689041583.8773985,47
1689041583.9274037,40
1689041583.9804025,35
1689041584.0304024,35
1689041584.0804021,31
1689041584.1304023,24
1689041584.1803977,17
1689041584.2304018,12
1689041584.2804022,11
1689041584.3303976,10
1689041584.3803983,22
1689041584.4304016,45
1689041584.4813983,54
1689041584.5304012,50
1689041584.5803983,49
1689041584.6303978,44
1689041584.6804013,37
1689041584.730397,37
1689041584.7634015,37
1689041584.8133962,35
1689041584.8633962,29
1689041584.9133968,24
1689041584.9644005,21
1689041585.0133967,22
1689041585.0633972,20
1689041585.115396,25
1689041585.1664004,44
1689041585.2133963,56
1689041585.2633965,53
1689041585.313396,52
1689041585.3634012,46
1689041585.4144058,40
1689041585.4633973,37
1689041585.5143998,35
1689041585.5634005,31
1689041585.613396,24
1689041585.6633997,18
1689041585.7134004,14
1689041585.7523952,12
1689041585.7983954,11
1689041585.8473997,9
1689041585.8973951,7
1689041585.9473991,6
1689041585.9973989,5
1689041586.0473988,4
1689041586.097401,10
1689041586.147395,41
1689041586.1973946,59
1689041586.2473986,57
1689041586.297399,56
1689041586.3473935,55
1689041586.3973987,50
1689041586.447398,48
1689041586.4973984,45
1689041586.547398,40
1689041586.5973945,32
1689041586.647398,25
1689041586.697394,21
1689041586.7473927,20
1689041586.7803934,18
1689041586.8305843,16
1689041586.8805945,14
1689041586.9305933,11
1689041586.980598,13
1689041587.030595,36
1689041587.0805979,64
1689041587.1305935,69
1689041587.1805978,66
1689041587.2305944,62
1689041587.2805977,57
1689041587.330595,54
1689041587.3805974,53
1689041587.430593,47
1689041587.4805973,39
1689041587.530593,28
1689041587.5805972,20
1689041587.6305969,16
1689041587.680597,15
1689041587.730593,13
1689041587.7645931,11
1689041587.814593,11
1689041587.8655922,32
1689041587.9155922,65
1689041587.964593,78
1689041588.014592,75
1689041588.0645964,71
1689041588.1145961,62
1689041588.164595,57
1689041588.2145958,55
1689041588.2645917,49
1689041588.3145957,39
1689041588.3645911,28
1689041588.4145956,22
1689041588.4645925,22
1689041588.5145955,22
1689041588.5645907,20
1689041588.6145916,19
1689041588.6665952,28
1689041588.7155921,67
1689041588.752595,90
1689041588.7975948,90
1689041588.8475952,83
1689041588.897595,76
1689041588.9475908,67
1689041588.99759,64
1689041589.047591,57
1689041589.0975902,46
1689041589.1475942,34
1689041589.1975944,25
1689041589.2475946,17
1689041589.2975914,13
1689041589.3475938,11
1689041589.39759,11
1689041589.4475937,15
1689041589.4975896,43
1689041589.5475938,76
1689041589.5975935,83
1689041589.64759,77
1689041589.6975982,69
1689041589.747589,59
1689041589.7805932,48
1689041589.8305898,46
1689041589.8805928,43
1689041589.9305935,36
1689041589.9805949,25
1689041590.0305896,16
1689041590.0805888,12
1689041590.1305947,12
1689041590.1805923,15
1689041590.2305887,16
1689041590.280589,16
1689041590.3305888,40
1689041590.380594,76
1689041590.4305925,91
1689041590.480592,87
1689041590.5305877,77
1689041590.5805926,62
1689041590.6305876,52
1689041590.6805916,45
1689041590.730592,45
1689041590.7645879,40
1689041590.8146472,31
1689041590.8645883,21
1689041590.914592,14
1689041590.964592,16
1689041591.014591,20
1689041591.064587,20
1689041591.115592,27
1689041591.164587,58
1689041591.215591,86
1689041591.2645912,84
1689041591.3145907,70
1689041591.3645868,57
1689041591.4145856,47
1689041591.4645867,46
1689041591.5145864,47
1689041591.5645907,41
1689041591.6145902,32
1689041591.6645904,27
1689041591.7145917,25
1689041591.7535903,21
1689041591.797586,17
1689041591.8475857,10
1689041591.89759,4
1689041591.947587,20
1689041592.0005858,67
1689041592.0505857,84
1689041592.1005855,76
1689041592.1505892,68
1689041592.200585,60
1689041592.250585,57
1689041592.3005888,57
1689041592.3505893,50
1689041592.4005888,39
1689041592.4505887,28
1689041592.501585,19
1689041592.5505843,12
1689041592.6005847,6
1689041592.6505842,2
1689041592.7005835,8
1689041592.7505884,43
1689041592.7835834,79
1689041592.833584,84
1689041592.8835878,74
1689041592.9335833,63
1689041592.9835842,52
1689041593.0335836,46
1689041593.0835886,45
1689041593.1335876,41
1689041593.1835883,32
1689041593.2335837,20
1689041593.2835877,9
1689041593.3335836,1
1689041593.383589,0
1689041593.4335845,0
1689041593.483584,0
1689041593.5335872,8
1689041593.5835872,50
1689041593.6335833,87
1689041593.6835868,78
1689041593.7335825,63
1689041593.7675824,50
1689041593.8175824,44
1689041593.8675869,42
1689041593.917587,41
1689041593.9675834,33
1689041594.0175867,21
1689041594.0675821,11
1689041594.1175835,3
1689041594.1675823,0
1689041594.2175858,0
1689041594.2675817,0
1689041594.3175864,6
1689041594.3675823,47
1689041594.4175854,85
1689041594.467582,85
1689041594.5175815,71
1689041594.5675871,56
1689041594.6175816,46
1689041594.6675856,46
1689041594.7175853,45
1689041594.7535818,37
1689041594.8005848,29
1689041594.8505845,17
1689041594.9004529,7
1689041594.9504492,2
1689041595.0004478,0
1689041595.0504494,0
1689041595.1004474,9
1689041595.1505957,49
1689041595.200821,90
1689041595.2508166,93
1689041595.3008213,59
1689041595.350816,51
1689041595.4006493,48
1689041595.4500449,48
1689041595.5010493,48
1689041595.5510447,43
1689041595.6010451,38
1689041595.6510515,32
1689041595.7010486,29
1689041595.751044,27
1689041595.788049,26
1689041595.8370435,28
1689041595.8870482,41
1689041595.9370494,65
1689041595.987045,74
1689041596.0360441,67
1689041596.087044,59
1689041596.137043,53
1689041596.1870432,53
1689041596.237048,53
1689041596.2870474,50
1689041596.3370426,44
1689041596.3860433,37
1689041596.4370432,32
1689041596.4870427,29
1689041596.5370479,27
1689041596.5870423,34
1689041596.6370468,54
1689041596.6870422,68
1689041596.7370424,63
1689041596.7760422,53
1689041596.8240426,46
1689041596.8740468,39
1689041596.924044,37
1689041596.978042,37
1689041597.0290432,32
1689041597.0790417,26
1689041597.1290426,19
1689041597.179043,14
1689041597.229041,13
1689041597.2781394,13
1689041597.3285472,25
1689041597.3785436,46
1689041597.4285424,58
1689041597.4785433,55
1689041597.5285425,46
1689041597.5785468,40
1689041597.628547,40
1689041597.6785426,44
1689041597.7285416,43
1689041597.7625468,39
1689041597.8209538,35
1689041597.8709474,31
1689041597.920948,32
1689041597.9709485,47
1689041598.0209472,64
1689041598.070947,66
1689041598.1209471,59
1689041598.1709516,49
1689041598.2209516,44
1689041598.2709513,45
1689041598.3209572,44
1689041598.3709526,40
1689041598.4209466,33
1689041598.498951,27
1689041598.5489464,42
1689041598.598951,62
1689041598.6489468,65
1689041598.6989493,60
1689041598.7489507,53
1689041598.7819505,47
1689041598.8319516,44
1689041598.8819458,44
1689041598.9319503,41
1689041598.9819455,36
1689041599.03195,30
1689041599.0819502,27
1689041599.1319456,38
1689041599.1819499,59
1689041599.2319455,68
1689041599.2812247,65
1689041599.3316224,59
1689041599.3816226,51
1689041599.4316225,46
1689041599.4956226,42
1689041599.5456262,39
1689041599.5956275,33
1689041599.6456227,27
1689041599.6956263,25
1689041599.7456214,38
1689041599.7786217,58
1689041599.8286211,65
1689041599.8786263,64
1689041599.9286215,61
1689041599.9816253,54
1689041600.0316222,46
1689041600.081621,42
1689041600.1316211,39
1689041600.1816206,34
1689041600.231621,28
1689041600.2811549,24
1689041600.3320203,21
1689041600.382025,20
1689041600.4610207,23
1689041600.5100248,54
1689041600.5600204,64
1689041600.6100197,64
1689041600.6600196,61
1689041600.7100244,53
1689041600.7540195,46
1689041600.7960253,43
1689041600.846019,40
1689041600.896024,35
1689041600.9460244,29
1689041600.9990199,24
1689041601.0490062,22
1689041601.0989656,20
1689041601.1481762,19
1689041601.1981719,17
1689041601.248176,15
1689041601.298171,14
1689041601.3481696,13
1689041601.398392,13
1689041601.4483957,18
1689041601.4983964,43
1689041601.5483909,65
1689041601.5988538,68
1689041601.6484847,66
1689041601.6984804,62
1689041601.7484806,55
1689041601.7814848,50
1689041601.8314795,48
1689041601.8814843,43
1689041601.9314857,38
1689041601.9814837,32
1689041602.0314796,28
1689041602.0814838,25
1689041602.131479,23
1689041602.1812425,22
1689041602.231236,20
1689041602.2812402,21
1689041602.3322365,36
1689041602.3812351,57
1689041602.4312358,64
1689041602.4952397,62
1689041602.5452354,56
1689041602.5957956,49
1689041602.645907,45
1689041602.6959028,41
1689041602.745902,37
1689041602.7799067,32
1689041602.8299026,28
1689041602.8799067,24
1689041602.929902,23
1689041602.9799063,22
1689041603.0299017,21
1689041603.0799077,19
1689041603.1299021,25
1689041603.1799068,46
1689041603.2299018,63
1689041603.2799013,64
1689041603.3293376,61
1689041603.3794858,55
1689041603.429216,48
1689041603.479311,45
1689041603.5293071,42
1689041603.5793111,38
1689041603.6293113,32
1689041603.6793063,27
1689041603.7297127,24
1689041603.7625165,23
1689041603.812521,22
1689041603.8625166,21
1689041603.912516,20
1689041603.965517,19
1689041604.0175207,30
1689041604.0665162,54
1689041604.1155205,69
1689041604.1655157,67
1689041604.2155154,63
1689041604.2651885,56
1689041604.3153481,50
1689041604.3653438,47
1689041604.4153478,43
1689041604.4653442,38
1689041604.5153477,31
1689041604.565345,26
1689041604.6153471,24
1689041604.6653433,23
1689041604.7153473,22
1689041604.7541194,20
1689041604.7981145,19
1689041604.8481193,18
1689041604.8981144,23
1689041604.9481194,46
1689041604.9981146,68
1689041605.0491145,70
1689041605.0981147,65
1689041605.1487072,60
1689041605.1987045,53
1689041605.2487047,50
1689041605.2987,47
1689041605.3487043,41
1689041605.3987002,35
1689041605.4486995,28
1689041605.4986997,24
1689041605.5487013,23
1689041605.5987039,22
1689041605.648699,21
1689041605.698699,19
1689041605.748699,18
1689041605.7822204,24
1689041605.8326838,40
1689041605.8826847,66
1689041605.933279,73
1689041605.9822807,67
1689041606.0322833,62
1689041606.0822806,55
1689041606.1322794,51
1689041606.1822839,49
1689041606.2322803,44
1689041606.282279,37
1689041606.332571,31
1689041606.382143,26
1689041606.4321427,24
1689041606.4971545,22
1689041606.5461442,21
1689041606.5961385,20
1689041606.6465528,18
1689041606.6961215,28
1689041606.7461176,45
1689041606.7795193,71
1689041606.8298366,75
1689041606.8798318,69
1689041606.9298322,63
1689041606.9828327,56
1689041607.0328314,50
1689041607.0828319,48
1689041607.1328325,43
1689041607.182836,36
1689041607.2328324,29
1689041607.2828317,25
1689041607.332831,23
1689041607.382831,22
1689041607.4328334,21
1689041607.4828305,20
1689041607.5328367,19
1689041607.5828352,18
1689041607.6328356,29
1689041607.68283,58
1689041607.7328303,79
1689041607.7658298,76
1689041607.8158307,71
1689041607.8658345,64
1689041607.9158306,57
1689041607.9668305,54
1689041608.0158303,52
1689041608.0658345,46
1689041608.1158361,39
1689041608.1658294,31
1689041608.2158306,26
1689041608.2653372,24
1689041608.3159122,24
1689041608.3657892,23
1689041608.4157882,21
1689041608.4797878,20
1689041608.5297832,19
1689041608.5797837,34
1689041608.6297877,65
1689041608.6797838,83
1689041608.7297873,78
1689041608.7627847,69
1689041608.8127882,66
1689041608.862783,60
1689041608.9127831,56
1689041608.9657874,54
1689041609.0157826,47
1689041609.0657868,40
1689041609.115788,32
1689041609.1657822,27
1689041609.2157867,24
1689041609.2657816,23
1689041609.3157816,22
1689041609.3657866,21
1689041609.4157825,19
1689041609.4687862,21
1689041609.5187862,41
1689041609.5667822,74
1689041609.6157866,84
1689041609.665786,75
1689041609.7157822,67
1689041609.754783,59
1689041609.818781,56
1689041609.8687809,55
1689041609.9187815,49
1689041609.9687824,40
1689041610.0187852,33
1689041610.0687854,28
1689041610.118781,25
1689041610.1687863,24
1689041610.218781,24
1689041610.2687852,22
1689041610.318785,20
1689041610.3687801,24
1689041610.4187799,49
1689041610.4687805,80
1689041610.5187805,84
1689041610.568786,74
1689041610.61878,65
1689041610.6687841,58
1689041610.7187798,55
1689041610.7547863,53
1689041610.8047802,50
1689041610.8547802,42
1689041610.9047818,35
1689041610.95478,29
1689041611.0047836,26
1689041611.0547836,25
1689041611.1047792,24
1689041611.1547835,23
1689041611.2047842,21
1689041611.2547786,21
1689041611.3047833,41
1689041611.35478,76
1689041611.404783,88
1689041611.454783,81
1689041611.5047803,71
1689041611.554778,63
1689041611.6047788,58
1689041611.654778,57
1689041611.7047825,52
1689041611.7547786,44
1689041611.8047824,37
1689041611.8547826,30
1689041611.9047785,26
1689041611.9660926,25
1689041612.0151916,23
1689041612.0651915,22
1689041612.1151872,21
1689041612.1651912,24
1689041612.2171874,49
1689041612.2651863,81
1689041612.3151863,87
1689041612.3651872,78
1689041612.4151862,69
1689041612.4661868,63
1689041612.516191,61
1689041612.5661905,60
1689041612.6161866,53
1689041612.6661904,43
1689041612.7161906,36
1689041612.7541857,31
1689041612.8021858,30
1689041612.8526297,30
1689041612.9029968,29
1689041612.9529924,29
1689041613.0029922,29
1689041613.0529976,44
1689041613.102996,78
1689041613.1529956,95
1689041613.202992,88
1689041613.2529926,80
1689041613.302996,74
1689041613.3529973,69
1689041613.4029963,65
1689041613.4529915,57
1689041613.5029957,47
1689041613.5529907,40
1689041613.6029954,37
1689041613.6529918,34
1689041613.7029953,32
1689041613.7529905,31
1689041613.7909956,30
1689041613.8389916,29
1689041613.8889909,30
1689041613.938995,48
1689041613.999995,83
1689041614.0499902,85
1689041614.0999897,76
1689041614.1499908,68
1689041614.1999898,60
1689041614.2499943,55
1689041614.2999895,49
1689041614.3499944,40
1689041614.3999941,29
1689041614.44999,20
1689041614.4999897,15
1689041614.54999,13
1689041614.5999897,11
1689041614.6499894,10
1689041614.6999905,9
1689041614.7499902,11
1689041614.7829893,32
1689041614.8329935,49
1689041614.8829892,60
1689041614.9329884,53
1689041614.9828992,43
1689041615.0321043,36
1689041615.0821087,38
1689041615.1321065,40
1689041615.1821086,37
1689041615.2321084,31
1689041615.2821038,26
1689041615.3321042,23
1689041615.3821082,21
1689041615.4321034,20
1689041615.4821033,28
1689041615.5321038,48
1689041615.582103,60
1689041615.6321037,54
1689041615.6821039,42
1689041615.7321036,35
1689041615.7661033,34
1689041615.8171039,39
1689041615.8661034,39
1689041615.9161074,32
1689041615.9661078,25
1689041616.016107,21
1689041616.066716,18
1689041616.1167095,17
1689041616.1667094,23
1689041616.216714,42
1689041616.2667103,59
1689041616.316714,59
1689041616.366709,51
1689041616.4161916,44
1689041616.466559,40
1689041616.5165637,40
1689041616.5665593,39
1689041616.6165638,32
1689041616.6665592,25
1689041616.716566,22
1689041616.755559,20
1689041616.799563,20
1689041616.8495586,29
1689041616.8995583,48
1689041616.949563,59
1689041616.999558,57
1689041617.0495577,55
1689041617.0995588,50
1689041617.1495585,43
1689041617.1995583,40
1689041617.249558,36
1689041617.2995582,31
1689041617.3495622,26
1689041617.3995578,22
1689041617.4495573,20
1689041617.4991941,25
1689041617.5494783,41
1689041617.5994735,52
1689041617.6494782,51
1689041617.6994734,50
1689041617.7494776,46
1689041617.7834766,40
1689041617.8334785,38
1689041617.8834734,36
1689041617.933474,32
1689041617.983478,27
1689041618.0334737,22
1689041618.0834773,18
1689041618.1334727,17
1689041618.1834774,15
1689041618.233482,14
1689041618.283477,12
1689041618.333472,11
1689041618.3832676,10
1689041618.4333045,13
1689041618.4993002,40
1689041618.5493073,48
1689041618.5992997,47
1689041618.6493046,47
1689041618.6993048,45
1689041618.749301,42
1689041618.7883039,40
1689041618.8352997,38
1689041618.8852997,34
1689041618.9353,29
1689041618.9853034,25
1689041619.035299,22
1689041619.0852988,20
1689041619.135299,19
1689041619.1852992,17
1689041619.2352993,15
1689041619.2852995,23
1689041619.3352985,39
1689041619.385303,47
1689041619.435299,46
1689041619.4853024,46
1689041619.5362995,48
1689041619.5863028,41
1689041619.6362977,38
1689041619.6863022,33
1689041619.7362986,25
1689041619.7692983,15
1689041619.8243022,7
1689041619.8742976,2
1689041619.924302,0
1689041619.9833024,0
1689041620.0332983,0
1689041620.0833027,0
1689041620.133297,0
1689041620.1842976,6
1689041620.2332976,38
1689041620.2832978,46
1689041620.3333015,44
1689041620.383301,42
1689041620.4332998,35
1689041620.497298,32
1689041620.5472968,31
1689041620.597297,24
1689041620.647297,14
1689041620.697301,5
1689041620.747297,0
1689041620.7803006,0
1689041620.830296,0
1689041620.8803005,0
1689041620.9302957,12
1689041620.9833004,42
1689041621.033296,60
1689041621.083296,59
1689041621.1332965,52
1689041621.1832998,44
1689041621.233296,44
1689041621.283297,48
1689041621.333295,46
1689041621.3832996,37
1689041621.4332995,27
1689041621.483295,22
1689041621.5332992,20
1689041621.5832992,18
1689041621.6333,20
1689041621.6832993,43
1689041621.7332945,83
1689041621.7662945,100
1689041621.8162944,98
1689041621.866299,91
1689041621.916295,60
1689041621.9682984,56
1689041622.0162985,55
1689041622.0662942,53
1689041622.1162934,47
1689041622.1660872,40
1689041622.216609,36
1689041622.2666085,33
1689041622.3166049,31
1689041622.3666084,30
1689041622.4186046,39
1689041622.4666038,60
1689041622.5166085,73
1689041622.5666044,72
1689041622.616604,69
1689041622.6666079,63
1689041622.7166057,56
1689041622.7556078,52
1689041622.8006032,51
1689041622.8506076,46
1689041622.9006026,39
1689041622.9506035,32
1689041623.0006027,28
1689041623.051635,26
1689041623.1007853,24
1689041623.1518214,22
1689041623.200826,32
1689041623.250822,57
1689041623.3008213,72
1689041623.350826,72
1689041623.4008212,68
1689041623.4508219,62
1689041623.5008256,55
1689041623.5508213,50
1689041623.6008205,47
1689041623.650825,41
1689041623.7008255,35
1689041623.750821,28
1689041623.7838204,23
1689041623.8338249,21
1689041623.8838198,20
1689041623.9338245,18
1689041623.9838247,16
1689041624.0338204,24
1689041624.0838203,49
1689041624.1338243,70
1689041624.18382,70
1689041624.233824,65
1689041624.2838197,59
1689041624.3338237,51
1689041624.3838236,48
1689041624.4338193,45
1689041624.484819,40
1689041624.5338235,33
1689041624.5838196,26
1689041624.6338232,22
1689041624.6838186,19
1689041624.7334168,18
1689041624.7664118,17
1689041624.8164248,16
1689041624.8664293,18
1689041624.9184258,37
1689041624.9664292,66
1689041625.0164247,77
1689041625.0674288,71
1689041625.117425,65
1689041625.167424,58
1689041625.2174246,52
1689041625.2674284,50
1689041625.3174236,45
1689041625.367424,39
1689041625.417424,30
1689041625.4804282,23
1689041625.5304284,18
1689041625.5804238,16
1689041625.6304293,14
1689041625.6804278,13
1689041625.730428,12
1689041625.7644277,16
1689041625.8144236,32
1689041625.865424,64
1689041625.9144225,79
1689041625.9674237,74
1689041626.0174227,67
1689041626.0670068,60
1689041626.117437,54
1689041626.1674416,52
1689041626.2174368,48
1689041626.2674415,41
1689041626.3174372,37
1689041626.3674414,30
1689041626.4174368,25
1689041626.4804366,22
1689041626.531441,20
1689041626.5814364,18
1689041626.6314359,17
1689041626.6814358,21
1689041626.731442,44
1689041626.7644405,76
1689041626.8254364,84
1689041626.8754404,76
1689041626.9254353,66
1689041626.983216,58
1689041627.0332637,52
1689041627.0832593,51
1689041627.1332595,46
1689041627.1832595,39
1689041627.233263,31
1689041627.2832584,25
1689041627.3332589,22
1689041627.3832588,20
1689041627.4332583,19
1689041627.4832664,18
1689041627.5332625,16
1689041627.5832584,16
1689041627.6362624,31
1689041627.686258,64
1689041627.736259,84
1689041627.7882626,79
1689041627.8362622,66
1689041627.886263,56
1689041627.9362574,51
1689041627.9862583,50
1689041628.0362618,47
1689041628.0872571,40
1689041628.1362572,32
1689041628.1862574,25
1689041628.2372568,21
1689041628.2862573,19
1689041628.3362625,18
1689041628.3862576,17
1689041628.4362571,16
1689041628.486257,18
1689041628.536784,40
1689041628.5865636,73
1689041628.636564,83
1689041628.6865683,73
1689041628.7365692,61
1689041628.7705684,52
1689041628.8205647,49
1689041628.8705685,50
1689041628.9205647,48
1689041628.9705641,41
1689041629.0205677,34
1689041629.070568,27
1689041629.1205676,23
1689041629.170568,20
1689041629.220563,19
1689041629.2705624,18
1689041629.3205624,17
1689041629.3705623,21
1689041629.420563,46
1689041629.4845667,78
1689041629.5345669,82
1689041629.5845754,70
1689041629.6345618,58
1689041629.684442,50
1689041629.7349198,50
1689041629.7679157,50
1689041629.8179197,47
1689041629.867918,40
1689041629.9179194,31
1689041629.9699194,24
1689041630.0179229,20
1689041630.0679207,19
1689041630.117915,18
1689041630.167915,18
1689041630.2179189,18
1689041630.2679145,35
1689041630.317914,69
1689041630.3679185,87
1689041630.4179146,80
1689041630.481914,66
1689041630.5319145,52
1689041630.5819185,50
1689041630.6319134,52
1689041630.6819196,48
1689041630.7319148,40
1689041630.7659183,32
1689041630.8159144,27
1689041630.865918,22
1689041630.915918,20
1689041630.9679139,19
1689041631.017919,19
1689041631.0679133,18
1689041631.1189177,28
1689041631.1689174,60
1689041631.2179127,88
1689041631.2679126,86
1689041631.3179278,73
1689041631.3679132,61
1689041631.417917,55
1689041631.4689178,55
1689041631.5179129,54
1689041631.5679169,47
1689041631.6179132,39
1689041631.6679168,31
1689041631.7179165,26
1689041631.7569165,24
1689041631.8009124,23
1689041631.8509164,23
1689041631.9007177,23
1689041631.9507222,29
1689041632.000722,51
1689041632.0507183,87
1689041632.100718,90
1689041632.1507225,77
1689041632.200718,64
1689041632.2507217,56
1689041632.300722,55
1689041632.350718,55
1689041632.4007173,50
1689041632.4657211,41
1689041632.5157213,31
1689041632.5657165,26
1689041632.6157174,24
1689041632.665717,23
1689041632.7157161,23
1689041632.756716,22
1689041632.7986722,24
1689041632.8506804,53
1689041632.9006808,82
1689041632.9506848,91
1689041633.0006797,84
1689041633.0506845,67
1689041633.1006794,59
1689041633.1506808,57
1689041633.2006812,57
1689041633.2506802,52
1689041633.3006802,43
1689041633.3506792,35
1689041633.4006803,30
1689041633.4656796,27
1689041633.5146844,26
1689041633.564684,26
1689041633.6146834,24
1689041633.6646833,26
1689041633.7146797,50
1689041633.7566833,85
1689041633.7986794,93
1689041633.848678,85
1689041633.8986797,73
1689041633.948683,63
1689041634.001693,58
1689041634.0516968,57
1689041634.101693,53
1689041634.1516967,44
1689041634.201697,36
1689041634.2516918,30
1689041634.3016925,26
1689041634.3519092,25
1689041634.40103,24
1689041634.4651086,23
1689041634.5141091,21
1689041634.5641093,25
1689041634.6141136,53
1689041634.664109,86
1689041634.715109,89
1689041634.7561083,77
1689041634.8031085,70
1689041634.853113,60
1689041634.9031086,56
1689041634.9531126,55
1689041635.003108,49
1689041635.0531087,40
1689041635.1031084,33
1689041635.1531086,28
1689041635.2031078,25
1689041635.2531128,25
1689041635.303113,24
1689041635.3531122,23
1689041635.4031081,21
1689041635.4531069,20
1689041635.5039225,42
1689041635.5535648,79
1689041635.6035607,92
1689041635.6535616,82
1689041635.7035615,71
1689041635.7535603,61
1689041635.7875602,57
1689041635.8375611,57
1689041635.8875601,53
1689041635.937809,45
1689041635.98739,37
1689041636.0378966,30
1689041636.08788,27
1689041636.137852,26
1689041636.187778,26
1689041636.237776,26
1689041636.2870119,24
1689041636.3374102,23
1689041636.3874068,25
1689041636.437406,49
1689041636.487406,85
1689041636.5374064,94
1689041636.5874066,83
1689041636.6374059,72
1689041636.6876578,63
1689041636.7376623,60
1689041636.770663,58
1689041636.8206625,54
1689041636.8706634,46
1689041636.9206285,38
1689041636.9700632,33
1689041637.0200696,30
1689041637.0700674,29
1689041637.1200674,29
1689041637.170064,28
1689041637.2200627,25
1689041637.2706997,23
1689041637.3205044,22
1689041637.3705041,28
1689041637.4205036,59
1689041637.4705033,90
1689041637.5205038,91
1689041637.5705035,79
1689041637.6205084,70
1689041637.6705039,63
1689041637.7205036,61
1689041637.75651,60
1689041637.8045075,56
1689041637.8545074,48
1689041637.904503,40
1689041637.9545076,35
1689041638.0045025,31
1689041638.0545032,30
1689041638.1045032,29
1689041638.1545029,27
1689041638.2045028,24
1689041638.2545078,22
1689041638.3045068,27
1689041638.3545032,54
1689041638.4045022,80
1689041638.4545064,77
1689041638.5045016,62
1689041638.5545013,50
1689041638.6045024,41
1689041638.6545026,40
1689041638.7045014,40
1689041638.7545059,36
1689041638.792501,28
1689041638.8400083,22
1689041638.8904498,15
1689041638.940784,11
1689041639.0020704,10
1689041639.0518167,11
1689041639.1013448,10
1689041639.1513748,8
1689041639.201653,21
1689041639.2516828,56
1689041639.3016827,69
1689041639.3516827,61
1689041639.401682,46
1689041639.4656866,34
1689041639.5156822,36
1689041639.5656862,42
1689041639.6156864,40
1689041639.6656864,33
1689041639.7156823,26
1689041639.7576823,20
1689041639.7986827,17
1689041639.8486814,16
1689041639.8986857,19
1689041639.948681,38
1689041640.0016856,67
1689041640.0516808,78
1689041640.1016853,66
1689041640.1516812,50
1689041640.2016983,40
1689041640.2516863,41
1689041640.301685,48
1689041640.3516803,47
1689041640.4014273,38
1689041640.4514186,29
1689041640.501423,22
1689041640.5514183,19
1689041640.6010013,18
1689041640.651256,29
1689041640.704259,60
1689041640.7542546,83
1689041640.787254,79
1689041640.8372583,71
1689041640.887255,59
1689041640.9372535,49
1689041640.9874341,45
1689041641.0375986,47
1689041641.0875914,46
1689041641.1373217,40
1689041641.1878722,35
1689041641.237878,30
1689041641.2878726,27
1689041641.3378766,29
1689041641.3874116,51
1689041641.4374156,81
1689041641.4874156,87
1689041641.5374162,79
1689041641.587411,70
1689041641.6374152,61
1689041641.6874113,52
1689041641.7374158,49
1689041641.771415,45
1689041641.8214152,41
1689041641.871415,34
1689041641.9214108,27
1689041641.9714148,24
1689041642.02141,22
1689041642.0714107,34
1689041642.121416,63
1689041642.1714108,80
1689041642.2214096,74
1689041642.2714107,65
1689041642.3214097,57
1689041642.371411,48
1689041642.4214094,44
1689041642.496414,39
1689041642.5464094,31
1689041642.5964103,24
1689041642.6464138,19
1689041642.69641,18
1689041642.7464092,17
1689041642.7794094,23
1689041642.8294084,38
1689041642.8794136,66
1689041642.9294116,73
1689041642.9854136,65
1689041643.0354085,57
1689041643.0854144,52
1689041643.1354144,45
1689041643.1854086,42
1689041643.2354085,40
1689041643.2854087,31
1689041643.3354087,23
1689041643.3854082,17
1689041643.4354076,14
1689041643.4854121,13
1689041643.5354135,13
1689041643.5854158,11
1689041643.635681,9
1689041643.6851342,7
1689041643.7351396,4
1689041643.7681334,2
1689041643.819861,6
1689041643.8694215,34
1689041643.9184217,65
1689041643.969416,68
1689041644.0184162,56
1689041644.0684206,46
1689041644.118416,39
1689041644.1684165,34
1689041644.2184172,34
1689041644.2684171,31
1689041644.3184156,22
1689041644.3684165,10
1689041644.4194212,0
1689041644.4684205,0
1689041644.5184155,0
1689041644.5684156,0
1689041644.618421,0
1689041644.669421,24
1689041644.7194195,55
1689041644.7574148,62
1689041644.8014154,58
1689041644.8514147,49
1689041644.9014192,41
1689041644.9514146,39
1689041645.0014143,40
1689041645.0514188,35
1689041645.1014147,28
1689041645.151419,17
1689041645.2014203,10
1689041645.2514148,8
1689041645.3014147,10
1689041645.3514187,14
1689041645.4014144,40
1689041645.4664147,67
1689041645.5164182,69
1689041645.5664144,59
1689041645.6174135,49
1689041645.6664138,40
1689041645.715418,40
1689041645.757418,40
1689041645.7994132,39
1689041645.8494184,32
1689041645.899415,24
1689041645.9494176,19
1689041646.0024173,17
1689041646.0524127,17
1689041646.1024144,22
1689041646.152418,51
1689041646.2024128,71
1689041646.2524168,75
1689041646.3024168,68
1689041646.3524172,58
1689041646.402417,48
1689041646.4524167,42
1689041646.502412,42
1689041646.5524173,40
1689041646.6024127,34
1689041646.6524162,26
1689041646.7024164,21
1689041646.7524123,19
1689041646.7854123,19
1689041646.835412,21
1689041646.8854125,39
1689041646.9354122,66
1689041646.985416,75
1689041647.0351458,68
1689041647.0855384,59
1689041647.1355343,50
1689041647.185539,43
1689041647.2356079,42
1689041647.2855377,40
1689041647.3355408,35
1689041647.385793,28
1689041647.4351761,22
1689041647.485333,19
1689041647.5352387,19
1689041647.5852401,20
1689041647.6352339,35
1689041647.6852381,64
1689041647.7352343,78
1689041647.768238,71
1689041647.8252335,63
1689041647.8742335,55
1689041647.9242332,46
1689041647.9822376,42
1689041648.0322378,40
1689041648.0822337,33
1689041648.1322334,25
1689041648.1822371,20
1689041648.2322333,17
1689041648.2822373,15
1689041648.332233,14
1689041648.3822324,15
1689041648.432463,28
1689041648.4827309,60
1689041648.5325334,77
1689041648.5826924,70
1689041648.6322176,60
1689041648.682568,51
1689041648.7325683,44
1689041648.7665644,42
1689041648.8215683,40
1689041648.8715682,36
1689041648.9215703,28
1689041648.9715645,21
1689041649.0215676,17
1689041649.0715678,16
1689041649.121563,16
1689041649.1715655,16
1689041649.2215683,16
1689041649.2715635,23
1689041649.3215363,52
1689041649.3716035,79
1689041649.4214883,77
1689041649.4854877,65
1689041649.5354872,54
1689041649.585482,47
1689041649.635942,44
1689041649.6853364,43
1689041649.7353363,38
1689041649.7683356,30
1689041649.81834,25
1689041649.8683403,19
1689041649.9183407,16
1689041649.9683406,15
1689041650.0183408,15
1689041650.068335,14
1689041650.11834,16
1689041650.1703353,35
1689041650.2203345,66
1689041650.269335,77
1689041650.319339,67
1689041650.3693347,55
1689041650.4199033,46
1689041650.4697134,42
1689041650.5197084,41
1689041650.5697086,39
1689041650.6197095,32
1689041650.6697147,23
1689041650.7197132,17
1689041650.7577133,13
1689041650.802714,11
1689041650.8524644,9
1689041650.9025347,9
1689041650.9521444,8
1689041651.002239,18
1689041651.0522344,54
1689041651.10224,73
1689041651.1522386,69
1689041651.2022355,55
1689041651.2525294,43
1689041651.3027747,36
1689041651.3527784,37
1689041651.4027739,39
1689041651.4527738,35
1689041651.5027785,28
1689041651.5527794,22
1689041651.6027737,18
1689041651.6527736,15
1689041651.7027736,15
1689041651.752774,17
1689041651.7857738,40
1689041651.8357792,56
1689041651.8853617,80
1689041651.9353008,76
1689041651.9849937,62
1689041652.035015,49
1689041652.0859392,42
1689041652.1353185,44
1689041652.185315,46
1689041652.2353184,42
1689041652.2853148,35
1689041652.3353186,28
1689041652.3853197,23
1689041652.4353142,20
1689041652.4853187,21
1689041652.535318,40
1689041652.5853138,73
1689041652.6353183,83
1689041652.685318,72
1689041652.735318,58
1689041652.7693226,48
1689041652.8249757,45
1689041652.8749213,48
1689041652.9241953,48
1689041652.983195,42
1689041653.0331967,34
1689041653.0831954,29
1689041653.1331997,26
1689041653.183199,25
1689041653.233195,29
1689041653.2831945,51
1689041653.333199,83
1689041653.383792,91
1689041653.433791,78
1689041653.4977872,63
1689041653.547792,56
1689041653.5977864,55
1689041653.6477869,55
1689041653.6977909,48
1689041653.7477868,40
1689041653.7857866,33
1689041653.8337913,29
1689041653.883786,26
1689041653.9337907,25
1689041653.9857905,29
1689041654.0357854,53
1689041654.0857866,80
1689041654.135786,81
1689041654.185786,68
1689041654.2357924,56
1689041654.2857897,49
1689041654.3357854,48
1689041654.38579,48
1689041654.4357858,43
1689041654.485785,36
1689041654.5357895,28
1689041654.5857847,23
1689041654.6357899,20
1689041654.6857848,19
1689041654.7357895,22
1689041654.792785,43
1689041654.8417845,73
1689041654.8917866,71
1689041654.9417887,58
1689041654.9997888,44
1689041655.049784,40
1689041655.0997884,41
1689041655.1497886,41
1689041655.1997843,36
1689041655.2497838,28
1689041655.2997847,21
1689041655.3497832,17
1689041655.3997881,15
1689041655.4647832,16
1689041655.513783,26
1689041655.5637844,56
1689041655.6137877,79
1689041655.6637876,74
1689041655.7137837,60
1689041655.7587893,50
1689041655.7997878,45
1689041655.8507836,45
1689041655.900787,46
1689041655.9507873,42
1689041656.002787,35
1689041656.0527825,28
1689041656.102782,24
1689041656.1520617,22
1689041656.2020638,22
1689041656.2520638,37
1689041656.302063,69
1689041656.3530653,77
1689041656.4020631,66
1689041656.4520583,51
1689041656.5020726,41
1689041656.552059,40
1689041656.6020627,43
1689041656.6520586,40
1689041656.7020626,34
1689041656.7520628,27
1689041656.7870586,23
1689041656.8360586,21
1689041656.886058,21
1689041656.9360628,24
1689041656.986058,43
1689041657.036062,73
1689041657.0860636,78
1689041657.1360624,66
1689041657.1860588,55
1689041657.2360625,48
1689041657.2860572,46
1689041657.336401,46
1689041657.3866088,42
1689041657.43655,36
1689041657.4862282,28
1689041657.5362236,24
1689041657.5862267,22
1689041657.6362226,22
1689041657.6863692,23
1689041657.736413,33
1689041657.7700427,61
1689041657.8215494,78
1689041657.8689816,79
1689041657.9196894,68
1689041657.9696832,58
1689041658.0197217,52
1689041658.0694356,49
1689041658.118652,48
1689041658.169166,43
1689041658.219885,36
1689041658.2694275,29
1689041658.3194318,24
1689041658.3694274,21
1689041658.4194272,21
1689041658.4691753,22
1689041658.5193548,21
1689041658.5713549,25
1689041658.6193547,50
1689041658.6693544,77
1689041658.7193556,76
1689041658.7583544,64
1689041658.8023589,57
1689041658.8523538,50
1689041658.9028752,47
1689041658.952783,47
1689041659.0027823,43
1689041659.0527878,37
1689041659.102787,30
1689041659.1537828,24
1689041659.2037818,22
1689041659.2537823,22
1689041659.3031414,22
1689041659.3538442,22
1689041659.4038389,20
1689041659.4531176,20
1689041659.5029933,36
1689041659.5539901,66
1689041659.6029935,77
1689041659.652989,66
1689041659.7030253,52
1689041659.753028,43
1689041659.786033,40
1689041659.8360279,41
1689041659.886895,40
1689041659.9363558,35
1689041659.9863508,27
1689041660.0363555,19
1689041660.0863554,15
1689041660.1363516,12
1689041660.1863563,13
1689041660.2364686,14
1689041660.2864726,14
1689041660.3364673,13
1689041660.3859665,18
1689041660.436324,46
1689041660.4863236,76
1689041660.5363195,76
1689041660.5863194,62
1689041660.6363194,50
1689041660.6863186,43
1689041660.7363195,44
1689041660.7693188,46
1689041660.820319,44
1689041660.8693192,38
1689041660.919323,30
1689041660.9693189,25
1689041661.0193205,23
1689041661.0703228,23
1689041661.1193228,24
1689041661.1723175,37
1689041661.2213225,65
1689041661.2693183,79
1689041661.3193226,69
1689041661.3693182,54
1689041661.4193223,43
1689041661.4693222,40
1689041661.5203168,44
1689041661.5693228,43
1689041661.619317,37
1689041661.6693227,29
1689041661.719323,23
1689041661.7583215,20
1689041661.8033192,19
1689041661.853317,20
1689041661.904317,21
1689041661.9533184,30
1689041662.0033169,66
1689041662.0533164,89
1689041662.103736,81
1689041662.1530836,67
1689041662.2030005,57
1689041662.2530913,51
1689041662.303526,50
1689041662.353173,49
1689041662.4039857,41
1689041662.4529855,33
1689041662.502986,26
1689041662.5529916,21
1689041662.6029856,20
1689041662.6529858,20
1689041662.7029848,20
1689041662.7529895,23
1689041662.785985,51
1689041662.8359854,67
1689041662.8859854,82
1689041662.935985,72
1689041662.9859843,60
1689041663.0366488,51
1689041663.0868168,46
1689041663.136812,47
1689041663.1868167,45
1689041663.2368128,39
1689041663.2859986,30
1689041663.336545,24
1689041663.3867419,20
1689041663.4368026,18
1689041663.4868076,19
1689041663.5368023,19
1689041663.5868022,21
1689041663.6368022,40
1689041663.686802,70
1689041663.7363164,76
1689041663.7708216,62
1689041663.820485,53
1689041663.870481,44
1689041663.9204848,40
1689041663.9704802,42
1689041664.020485,42
1689041664.0704796,38
1689041664.1204848,30
1689041664.1704798,23
1689041664.2204802,17
1689041664.2704844,15
1689041664.3204792,15
1689041664.3704796,15
1689041664.4204795,15
1689041664.4714804,29
1689041664.520485,58
1689041664.5704796,71
1689041664.6204803,61
1689041664.6704843,46
1689041664.720484,37
1689041664.7594793,35
1689041664.8034883,37
1689041664.8534834,39
1689041664.9034789,35
1689041664.953479,26
1689041665.0034788,21
1689041665.0534794,14
1689041665.1034832,11
1689041665.153479,11
1689041665.2034788,12
1689041665.2534833,23
1689041665.3034792,55
1689041665.3534775,69
1689041665.4034803,62
1689041665.4534824,47
1689041665.5034778,37
1689041665.553479,34
1689041665.6034775,40
1689041665.653478,42
1689041665.7034783,38
1689041665.7534778,30
1689041665.7864778,24
1689041665.8364766,22
1689041665.8864832,22
1689041665.9360716,26
1689041665.9860713,45
1689041666.0360668,69
1689041666.086066,80
1689041666.136066,69
1689041666.1860664,55
1689041666.2360666,46
1689041666.286067,45
1689041666.3370674,48
1689041666.3860676,46
1689041666.4360673,40
1689041666.4860709,32
1689041666.536066,26
1689041666.5860653,24
1689041666.6360698,25
1689041666.6860712,27
1689041666.736065,43
1689041666.7700653,75
1689041666.8200655,87
1689041666.8700655,83
1689041666.920065,71
1689041666.9710693,62
1689041667.0200646,55
1689041667.0700645,53
1689041667.120065,51
1689041667.1700656,45
1689041667.220064,38
1689041667.2700653,31
1689041667.3203542,26
1689041667.3701272,25
1689041667.4201276,25
1689041667.470127,31
1689041667.5201266,54
1689041667.5701225,78
1689041667.6201265,76
1689041667.6701274,65
1689041667.7201226,56
1689041667.759128,50
1689041667.8031263,48
1689041667.8531275,49
1689041667.903122,46
1689041667.9531267,39
1689041668.0031219,32
1689041668.0531256,26
1689041668.1031256,23
1689041668.1531222,21
1689041668.2031271,21
1689041668.2531254,21
1689041668.3031256,34
1689041668.3531256,61
1689041668.4031217,74
1689041668.453126,64
1689041668.5031252,52
1689041668.553121,43
1689041668.603125,40
1689041668.6541202,40
1689041668.7031248,39
1689041668.75312,33
1689041668.7871244,25
1689041668.8371203,21
1689041668.8871205,16
1689041668.9371243,15
1689041668.9871204,15
1689041669.0371249,17
1689041669.0871239,20
1689041669.1372097,42
1689041669.1871204,72
1689041669.23712,76
1689041669.2871199,63
1689041669.3371239,50
1689041669.3871198,43
1689041669.4371238,43
1689041669.4871264,45
1689041669.53712,41
1689041669.5871193,34
1689041669.637119,27
1689041669.687119,22
1689041669.7371192,20
1689041669.7701235,21
1689041669.8211236,23
1689041669.8711188,42
1689041669.920118,70
1689041669.9701178,76
1689041670.0201185,64
1689041670.0701184,51
1689041670.120124,44
1689041670.1701186,45
1689041670.2201185,47
1689041670.2701225,42
1689041670.3201182,35
1689041670.3701172,27
1689041670.4201183,23
1689041670.470117,22
1689041670.5211177,22
1689041670.5711167,27
1689041670.6201177,49
1689041670.670122,80
1689041670.7201338,84
1689041670.7591174,72
1689041670.8091164,65
1689041670.8591166,53
1689041670.9091172,49
1689041670.9701166,48
1689041671.0201163,42
1689041671.0701213,35
1689041671.1201205,28
1689041671.1701207,23
1689041671.220116,21
1689041671.2701209,22
1689041671.3211164,22
1689041671.3721204,30
1689041671.4211164,57
1689041671.4701183,77
1689041671.5201201,71
1689041671.57012,59
1689041671.620117,49
1689041671.670115,43
1689041671.720115,42
1689041671.7591195,41
1689041671.8231146,35
1689041671.8731196,28
1689041671.9231217,22
1689041671.9738345,19
1689041672.023535,18
1689041672.0735319,18
1689041672.123527,17
1689041672.173532,18
1689041672.2235277,36
1689041672.2735267,64
1689041672.3235269,71
1689041672.3735313,58
1689041672.4235318,46
1689041672.4735322,39
1689041672.523532,36
1689041672.5735314,37
1689041672.6235313,35
1689041672.6735308,28
1689041672.723527,20
1689041672.7595315,13
1689041672.8065326,10
1689041672.856526,9
1689041672.9062376,10
1689041672.9563813,11
1689041673.0063863,11
1689041673.0563865,16
1689041673.106386,42
1689041673.1563811,68
1689041673.2063859,63
1689041673.2563815,49
1689041673.306386,40
1689041673.3563814,37
1689041673.4063854,39
1689041673.4563808,39
1689041673.5063853,33
1689041673.5563855,26
1689041673.6063855,20
1689041673.6563854,18
1689041673.7063801,17
1689041673.756385,18
1689041673.7953808,27
1689041673.8433847,34
1689041673.8933861,61
1689041673.9433799,72
1689041674.0043855,55
1689041674.0543802,42
1689041674.1043842,38
1689041674.1543808,41
1689041674.2043853,42
1689041674.2543802,39
1689041674.3043795,31
1689041674.35438,24
1689041674.4043837,20
1689041674.454379,19
1689041674.5043795,19
1689041674.5543795,29
1689041674.6043835,63
1689041674.6543844,83
1689041674.7043834,78
1689041674.754379,65
1689041674.7873793,54
1689041674.8373833,49
1689041674.8873782,47
1689041674.937379,48
1689041674.9873781,44
1689041675.0373828,38
1689041675.087378,30
1689041675.137632,25
1689041675.1874163,22
1689041675.2373173,22
1689041675.287424,23
1689041675.3378181,34
1689041675.3878236,64
1689041675.4378226,83
1689041675.487818,75
1689041675.5378222,62
1689041675.5878181,52
1689041675.637818,47
1689041675.6878223,47
1689041675.737818,46
1689041675.7718234,40
1689041675.8218222,35
1689041675.8718178,28
1689041675.9218252,24
1689041675.9718213,22
1689041676.0218165,22
1689041676.0715241,21
1689041676.1210232,25
1689041676.172027,49
1689041676.2220278,76
1689041676.2710266,77
1689041676.3220232,63
1689041676.3710234,52
1689041676.4210265,45
1689041676.4710226,45
1689041676.5210266,45
1689041676.5710227,40
1689041676.621022,36
1689041676.6710303,29
1689041676.7210221,23
1689041676.7590222,19
1689041676.804022,19
1689041676.8540263,19
1689041676.904022,19
1689041676.9540255,28
1689041677.0040257,45
1689041677.0540218,75
1689041677.1040254,71
1689041677.1540205,56
1689041677.2040246,44
1689041677.2540252,39
1689041677.3040214,40
1689041677.3540251,40
1689041677.4040213,37
1689041677.454022,28
1689041677.5040212,21
1689041677.5540206,17
1689041677.6050215,15
1689041677.6540258,16
1689041677.7040253,17
1689041677.7540257,22
1689041677.7870197,47
1689041677.8377385,67
1689041677.8878033,75
1689041677.937803,62
1689041677.9878042,48
1689041678.0378027,40
1689041678.0878031,40
1689041678.1378033,42
1689041678.1878028,40
1689041678.2378032,34
1689041678.2878072,27
1689041678.3378022,23
1689041678.3878028,21
1689041678.437802,21
1689041678.4878025,31
1689041678.537803,57
1689041678.5878017,78
1689041678.6369467,71
1689041678.687054,56
1689041678.7370548,44
1689041678.7710533,40
1689041678.8260577,43
1689041678.8760576,43
1689041678.9260535,38
1689041678.9870534,30
