timestamp,bvp
1689046708.9000764,44
1689046708.9500768,41
1689046709.000077,37
1689046709.0500753,34
1689046709.100624,32
1689046709.1501186,31
1689046709.184009,30
1689046709.2340033,29
1689046709.2840042,29
1689046709.3340092,40
1689046709.3840091,57
1689046709.434003,61
1689046709.484003,56
1689046709.5340035,50
1689046709.584003,46
1689046709.6340075,45
1689046709.6840026,45
1689046709.734532,44
1689046709.7835393,40
1689046709.834534,37
1689046709.8835344,33
1689046709.934535,30
1689046709.984534,28
1689046710.034539,27
1689046710.0845335,26
1689046710.1345384,25
1689046710.1675446,33
1689046710.2229795,47
1689046710.2732515,60
1689046710.3232563,59
1689046710.3812513,52
1689046710.4312513,43
1689046710.480637,40
1689046710.5311272,40
1689046710.5811236,40
1689046710.6311235,38
1689046710.681127,33
1689046710.7311227,27
1689046710.7811224,23
1689046710.8311267,19
1689046710.8811226,17
1689046710.9311266,16
1689046710.9811218,14
1689046711.0311275,14
1689046711.0811265,30
1689046711.1311262,56
1689046711.164126,66
1689046711.214121,61
1689046711.2641215,50
1689046711.314122,40
1689046711.364127,36
1689046711.414126,37
1689046711.464124,39
1689046711.514122,38
1689046711.5641255,32
1689046711.6141217,25
1689046711.6641252,17
1689046711.7141218,14
1689046711.7641275,12
1689046711.8141203,11
1689046711.8671203,23
1689046711.91612,53
1689046711.964125,71
1689046712.0141199,65
1689046712.0641248,54
1689046712.1141202,42
1689046712.1531198,38
1689046712.1981366,39
1689046712.2481196,40
1689046712.298126,38
1689046712.3481202,32
1689046712.3981206,27
1689046712.4481194,19
1689046712.498124,15
1689046712.5481195,13
1689046712.5981238,19
1689046712.648119,54
1689046712.6981235,74
1689046712.747812,73
1689046712.7979846,63
1689046712.8479843,52
1689046712.8979843,44
1689046712.9479237,43
1689046712.998389,45
1689046713.0478268,43
1689046713.0978308,38
1689046713.147826,31
1689046713.1808264,27
1689046713.2308307,25
1689046713.2808259,23
1689046713.3308303,32
1689046713.3808258,57
1689046713.4308302,73
1689046713.480826,70
1689046713.5308301,63
1689046713.580825,56
1689046713.63083,50
1689046713.6808248,47
1689046713.7308295,47
1689046713.7808256,44
1689046713.8308246,40
1689046713.8948295,32
1689046713.9452083,29
1689046713.9953723,27
1689046714.045368,31
1689046714.095372,47
1689046714.1453679,65
1689046714.1790447,67
1689046714.2287657,63
1689046714.2793536,58
1689046714.3293438,54
1689046714.3806884,51
1689046714.4306877,50
1689046714.480688,48
1689046714.5306892,44
1689046714.580692,40
1689046714.6306915,37
1689046714.6806872,35
1689046714.7306874,33
1689046714.7806869,32
1689046714.8306913,39
1689046714.8806882,54
1689046714.9306872,63
1689046714.9806955,62
1689046715.0306914,57
1689046715.0806873,53
1689046715.1306932,49
1689046715.164686,47
1689046715.2153025,46
1689046715.2654698,44
1689046715.3154707,40
1689046715.366475,37
1689046715.4154706,34
1689046715.4649498,32
1689046715.5155222,31
1689046715.5649765,30
1689046715.6157303,31
1689046715.6649945,41
1689046715.714585,57
1689046715.7645888,61
1689046715.8155847,56
1689046715.865021,52
1689046715.9153953,48
1689046715.9652033,45
1689046716.0145772,45
1689046716.065578,43
1689046716.114582,40
1689046716.1535778,35
1689046716.1975813,32
1689046716.2485769,29
1689046716.2975812,27
1689046716.3485765,27
1689046716.3976479,25
1689046716.4476552,24
1689046716.4976478,25
1689046716.5476532,40
1689046716.5976522,57
1689046716.647649,60
1689046716.6976526,54
1689046716.747648,47
1689046716.798648,43
1689046716.8476477,41
1689046716.897648,41
1689046716.9476519,40
1689046716.9976473,36
1689046717.0476475,31
1689046717.0976472,26
1689046717.1476474,22
1689046717.1866467,19
1689046717.2336466,18
1689046717.2836475,17
1689046717.3336525,15
1689046717.3836508,18
1689046717.4336517,40
1689046717.4836462,62
1689046717.5336468,62
1689046717.5836508,53
1689046717.6336458,44
1689046717.6836512,40
1689046717.733646,40
1689046717.7840366,40
1689046717.834532,38
1689046717.8845315,32
1689046717.933531,25
1689046717.9835355,20
1689046718.0335312,18
1689046718.084535,18
1689046718.13453,17
1689046718.1685321,18
1689046718.2185466,28
1689046718.2685344,54
1689046718.3185344,68
1689046718.3675306,61
1689046718.418535,51
1689046718.4685342,41
1689046718.5185342,38
1689046718.5685344,40
1689046718.6185293,40
1689046718.6675355,37
1689046718.7185292,30
1689046718.7685292,23
1689046718.8185291,19
1689046718.8685288,17
1689046718.918529,17
1689046718.9685292,18
1689046719.0185287,38
1689046719.0685287,64
1689046719.1185334,71
1689046719.1545305,64
1689046719.2005284,58
1689046719.2515304,49
1689046719.300528,44
1689046719.3515327,43
1689046719.400529,44
1689046719.4515326,41
1689046719.5015285,37
1689046719.5515294,31
1689046719.6015277,28
1689046719.6505432,28
1689046719.7015285,29
1689046719.7515278,32
1689046719.8015277,46
1689046719.8515275,66
1689046719.9005277,70
1689046719.9515326,65
1689046720.0015278,59
1689046720.051529,54
1689046720.1015286,50
1689046720.151527,49
1689046720.1852667,47
1689046720.235001,45
1689046720.2850053,40
1689046720.3350003,36
1689046720.3850029,33
1689046720.4350061,31
1689046720.4850051,31
1689046720.5351975,31
1689046720.585057,36
1689046720.6350522,51
1689046720.685052,63
1689046720.7350526,59
1689046720.7850568,53
1689046720.8350573,49
1689046720.8850582,46
1689046720.9350572,45
1689046720.9850562,44
1689046721.0350516,41
1689046721.085056,38
1689046721.1350513,33
1689046721.1680522,30
1689046721.2180562,29
1689046721.2680511,29
1689046721.3180556,29
1689046721.3680515,28
1689046721.4180555,35
1689046721.4680512,52
1689046721.5180557,61
1689046721.568051,57
1689046721.6184464,50
1689046721.668451,45
1689046721.7184453,43
1689046721.7684498,42
1689046721.81845,42
1689046721.8684454,40
1689046721.9184492,35
1689046721.9684463,31
1689046722.018445,28
1689046722.0684457,26
1689046722.118449,25
1689046722.154449,23
1689046722.2044442,22
1689046722.2544444,22
1689046722.304445,38
1689046722.3654494,59
1689046722.413444,61
1689046722.4634483,53
1689046722.5135248,44
1689046722.5634484,39
1689046722.6134498,39
1689046722.6634638,40
1689046722.713448,38
1689046722.7627244,33
1689046722.812738,25
1689046722.862891,18
1689046722.9128911,13
1689046722.962895,11
1689046723.0128946,10
1689046723.0629122,9
1689046723.1129086,19
1689046723.1539123,49
1689046723.1959078,66
1689046723.245908,67
1689046723.2957335,56
1689046723.345729,42
1689046723.3987288,33
1689046723.448728,31
1689046723.4991558,36
1689046723.548928,36
1689046723.5989237,31
1689046723.6489236,24
1689046723.6989276,18
1689046723.7489285,14
1689046723.7989228,11
1689046723.8489234,10
1689046723.8989236,25
1689046723.9489272,64
1689046723.9989235,77
1689046724.0489235,70
1689046724.0989223,57
1689046724.1489227,45
1689046724.181672,40
1689046724.231805,40
1689046724.2818103,42
1689046724.3318057,41
1689046724.3818047,35
1689046724.4318094,28
1689046724.4818048,21
1689046724.5318055,17
1689046724.5818107,15
1689046724.6318052,14
1689046724.6818092,37
1689046724.7318048,70
1689046724.781805,79
1689046724.8318088,70
1689046724.881804,59
1689046724.9318087,50
1689046724.9818099,44
1689046725.0318055,45
1689046725.0818086,45
1689046725.1318045,40
1689046725.1658082,34
1689046725.215804,29
1689046725.2658048,23
1689046725.3158062,20
1689046725.365808,19
1689046725.4168081,26
1689046725.4668033,51
1689046725.5158036,74
1689046725.565805,73
1689046725.6158037,65
1689046725.6658077,58
1689046725.715809,51
1689046725.765804,47
1689046725.8158083,47
1689046725.8658075,45
1689046725.915803,40
1689046725.9658082,33
1689046726.0158029,28
1689046726.065807,25
1689046726.1158035,24
1689046726.153802,24
1689046726.1988065,37
1689046726.2488074,63
1689046726.2988062,69
1689046726.3488023,64
1689046726.3988063,57
1689046726.448802,51
1689046726.498806,46
1689046726.548806,45
1689046726.598806,44
1689046726.6488013,41
1689046726.6988058,36
1689046726.7488022,31
1689046726.7988057,28
1689046726.8488007,25
1689046726.898801,23
1689046726.9488053,29
1689046726.9988003,46
1689046727.0488336,67
1689046727.0988834,66
1689046727.1490993,60
1689046727.182099,53
1689046727.2321053,49
1689046727.2820988,46
1689046727.3320982,45
1689046727.3821044,44
1689046727.4320984,40
1689046727.482104,35
1689046727.5320983,31
1689046727.582099,28
1689046727.6330981,27
1689046727.682098,27
1689046727.7321026,27
1689046727.7820983,39
1689046727.8320982,59
1689046727.8820982,67
1689046727.9321022,61
1689046727.9820995,53
1689046728.032103,48
1689046728.0820973,45
1689046728.1321018,46
1689046728.1660979,45
1689046728.216097,42
1689046728.266102,37
1689046728.3160975,32
1689046728.3661015,29
1689046728.416098,27
1689046728.466156,27
1689046728.5160973,27
1689046728.5661027,26
1689046728.6170962,38
1689046728.6660964,58
1689046728.7160962,66
1689046728.7661006,61
1689046728.8160968,52
1689046728.8660958,46
1689046728.916097,45
1689046728.9661007,46
1689046729.0160964,44
1689046729.0661001,40
1689046729.1160963,35
1689046729.1550958,30
1689046729.1991005,28
1689046729.249096,27
1689046729.2991698,26
1689046729.3490953,25
1689046729.3990996,24
1689046729.4490957,25
1689046729.4990997,42
1689046729.5490954,62
1689046729.5990946,64
1689046729.6490946,55
1689046729.6990952,45
1689046729.749099,39
1689046729.7990992,39
1689046729.8490944,40
1689046729.8990993,39
1689046729.949095,32
1689046729.999094,24
1689046730.049099,17
1689046730.0990944,12
1689046730.1490936,9
1689046730.1880944,8
1689046730.2350984,6
1689046730.2850943,5
1689046730.3350985,4
1689046730.385094,27
1689046730.4350946,63
1689046730.485099,72
1689046730.535095,60
1689046730.5850937,45
1689046730.635093,34
1689046730.6850948,32
1689046730.7350981,36
1689046730.785093,37
1689046730.835093,32
1689046730.8850973,26
1689046730.9350924,18
1689046730.985102,12
1689046731.0350926,8
1689046731.0851045,6
1689046731.135109,5
1689046731.1691093,13
1689046731.2191095,35
1689046731.2691095,75
1689046731.3191044,86
1689046731.3691053,75
1689046731.4191043,60
1689046731.4691086,48
1689046731.5191045,43
1689046731.5691085,46
1689046731.6191084,47
1689046731.669104,42
1689046731.7191043,36
1689046731.7691085,30
1689046731.8191087,25
1689046731.869108,23
1689046731.9191082,22
1689046731.9691076,20
1689046732.0191078,32
1689046732.0691078,61
1689046732.1191092,77
1689046732.1551032,71
1689046732.2021043,65
1689046732.2521026,57
1689046732.302107,52
1689046732.3521068,52
1689046732.4021022,53
1689046732.4521031,52
1689046732.5021026,47
1689046732.5521023,42
1689046732.601998,39
1689046732.6519954,36
1689046732.7019947,35
1689046732.7519958,35
1689046732.8019938,38
1689046732.851993,52
1689046732.9019935,66
1689046732.9519942,66
1689046733.0019982,60
1689046733.0519936,55
1689046733.1019938,51
1689046733.152,49
1689046733.1859972,49
1689046733.2359934,48
1689046733.285993,44
1689046733.3359923,40
1689046733.3862236,38
1689046733.4362738,36
1689046733.4860125,36
1689046733.5360072,35
1689046733.5860069,35
1689046733.6360133,36
1689046733.6860068,45
1689046733.736011,59
1689046733.7860062,61
1689046733.836006,56
1689046733.886011,52
1689046733.9360065,50
1689046733.9860125,48
1689046734.036006,47
1689046734.0860105,45
1689046734.1360056,42
1689046734.169006,39
1689046734.2190063,37
1689046734.269006,35
1689046734.3190062,35
1689046734.3690102,34
1689046734.419005,33
1689046734.4690053,32
1689046734.5190098,34
1689046734.5690057,45
1689046734.619005,58
1689046734.6690056,59
1689046734.7190115,54
1689046734.7690053,50
1689046734.8190095,47
1689046734.8690062,46
1689046734.9190044,45
1689046734.969004,43
1689046735.0186248,40
1689046735.0686574,37
1689046735.118655,34
1689046735.154987,33
1689046735.2049851,32
1689046735.2549808,31
1689046735.3049805,30
1689046735.3551445,29
1689046735.4054694,31
1689046735.4552202,44
1689046735.5048122,57
1689046735.5545225,56
1689046735.6054654,49
1689046735.65495,44
1689046735.70495,41
1689046735.7549899,40
1689046735.8045273,40
1689046735.8545334,38
1689046735.9045277,34
1689046735.9555278,29
1689046736.0045314,26
1689046736.054531,24
1689046736.1045265,23
1689046736.1545274,21
1689046736.2045267,20
1689046736.2545311,20
1689046736.304531,35
1689046736.3655274,53
1689046736.4155276,55
1689046736.4655268,51
1689046736.515531,43
1689046736.5655954,38
1689046736.6155307,36
1689046736.6655269,38
1689046736.7155256,37
1689046736.7655265,33
1689046736.8155303,28
1689046736.8655262,24
1689046736.9155273,21
1689046736.9665296,21
1689046737.0155299,21
1689046737.066526,22
1689046737.1155305,33
1689046737.1545296,53
1689046737.204531,64
1689046737.2555249,61
1689046737.3045297,55
1689046737.3655307,48
1689046737.4155252,43
1689046737.4665246,43
1689046737.5155292,44
1689046737.5665252,41
1689046737.6155257,37
1689046737.665529,33
1689046737.7155294,30
1689046737.7656066,28
1689046737.815525,28
1689046737.8655763,29
1689046737.9175758,29
1689046737.968571,39
1689046738.01661,57
1689046738.0666094,64
1689046738.116609,61
1689046738.1546555,55
1689046738.2186522,50
1689046738.268655,47
1689046738.3186553,46
1689046738.3686512,45
1689046738.4191365,42
1689046738.4688823,39
1689046738.518881,35
1689046738.5688818,32
1689046738.618882,30
1689046738.6688814,29
1689046738.7188854,28
1689046738.7688808,27
1689046738.8188813,27
1689046738.868886,39
1689046738.9188867,58
1689046738.9688811,65
1689046739.018881,61
1689046739.0688808,56
1689046739.1188862,53
1689046739.1558847,49
1689046739.202881,48
1689046739.2528846,47
1689046739.3028805,45
1689046739.3528845,41
1689046739.4028804,38
1689046739.4528797,34
1689046739.5028803,32
1689046739.5528798,31
1689046739.6028793,30
1689046739.652884,30
1689046739.7028842,30
1689046739.752884,38
1689046739.8028793,53
1689046739.8528805,60
1689046739.9028795,56
1689046739.9528794,52
1689046740.0028837,49
1689046740.0528836,46
1689046740.1028848,44
1689046740.1528847,43
1689046740.185883,40
1689046740.2358785,39
1689046740.285878,35
1689046740.335878,32
1689046740.3858786,30
1689046740.4358797,29
1689046740.485878,28
1689046740.5358782,27
1689046740.5858827,25
1689046740.6358776,31
1689046740.6858783,46
1689046740.735878,56
1689046740.785878,52
1689046740.835882,46
1689046740.8858821,42
1689046740.935884,41
1689046740.985878,41
1689046741.0358782,40
1689046741.0858774,39
1689046741.135882,35
1689046741.1698785,31
1689046741.2248812,29
1689046741.2748766,27
1689046741.324882,26
1689046741.3828769,25
1689046741.4328763,22
1689046741.4830558,21
1689046741.5329897,38
1689046741.5829952,56
1689046741.6329944,56
1689046741.682995,49
1689046741.7329955,41
1689046741.782994,37
1689046741.832989,36
1689046741.8829892,37
1689046741.9329937,36
1689046741.9829905,30
1689046742.0329945,23
1689046742.0839956,18
1689046742.1339886,14
1689046742.166665,14
1689046742.2165127,14
1689046742.2665167,15
1689046742.3165126,15
1689046742.366512,31
1689046742.4165123,58
1689046742.4665117,69
1689046742.516518,62
1689046742.5665123,53
1689046742.616512,44
1689046742.6665158,40
1689046742.7175126,42
1689046742.7665114,42
1689046742.8165114,39
1689046742.8675156,33
1689046742.9165156,28
1689046742.9665163,25
1689046743.0175111,24
1689046743.0665152,25
1689046743.1165106,26
1689046743.155516,31
1689046743.1995106,43
1689046743.249511,66
1689046743.2997055,73
1689046743.3497055,67
1689046743.399706,59
1689046743.4497008,53
1689046743.4997056,49
1689046743.5497012,48
1689046743.599705,46
1689046743.6497054,42
1689046743.6997051,37
1689046743.7497,30
1689046743.7997012,26
1689046743.8497052,23
1689046743.8997047,24
1689046743.9497087,25
1689046743.9996998,25
1689046744.0497,34
1689046744.0997005,55
1689046744.1497006,69
1689046744.1847003,65
1689046744.2336996,61
1689046744.2837002,56
1689046744.333699,53
1689046744.3842618,51
1689046744.4338386,51
1689046744.4838388,49
1689046744.5338387,44
1689046744.5838382,40
1689046744.6338427,37
1689046744.6838381,35
1689046744.7338421,35
1689046744.783838,35
1689046744.833842,33
1689046744.8838422,30
1689046744.9338431,37
1689046744.983837,55
1689046745.033837,66
1689046745.083838,62
1689046745.1338365,57
1689046745.1668413,53
1689046745.2178373,51
1689046745.2668366,49
1689046745.3168411,47
1689046745.3668368,45
1689046745.4168363,41
1689046745.466837,38
1689046745.5168414,34
1689046745.566836,32
1689046745.6168365,32
1689046745.666838,31
1689046745.7168367,30
1689046745.7668405,29
1689046745.8168366,40
1689046745.866841,57
1689046745.916836,62
1689046745.9668365,57
1689046746.016841,52
1689046746.0668356,49
1689046746.11684,47
1689046746.1558352,46
1689046746.2006075,45
1689046746.250643,42
1689046746.3007693,39
1689046746.350765,35
1689046746.4007645,32
1689046746.4507637,31
1689046746.500764,30
1689046746.5507643,30
1689046746.6007633,29
1689046746.6507638,28
1689046746.7007685,42
1689046746.7507682,57
1689046746.8007638,58
1689046746.850768,51
1689046746.9007678,45
1689046746.9507635,42
1689046747.000768,40
1689046747.0507693,39
1689046747.1007628,38
1689046747.150763,33
1689046747.1837676,27
1689046747.233763,23
1689046747.283767,19
1689046747.333767,17
1689046747.3837674,16
1689046747.4337673,15
1689046747.4837632,14
1689046747.533763,15
1689046747.5837667,36
1689046747.6337624,61
1689046747.6837633,65
1689046747.7337627,57
1689046747.7837622,49
1689046747.833767,43
1689046747.8837621,41
1689046747.933767,42
1689046747.983766,41
1689046748.0337613,37
1689046748.0837667,30
1689046748.1337676,24
1689046748.166766,21
1689046748.216763,20
1689046748.2667718,20
1689046748.3167622,20
1689046748.3667657,21
1689046748.4187653,39
1689046748.4667604,64
1689046748.5167665,70
1689046748.5667608,63
1689046748.6167607,56
1689046748.6667655,49
1689046748.7167654,45
1689046748.7667606,45
1689046748.8167598,44
1689046748.8667624,40
1689046748.9167602,33
1689046748.9667597,29
1689046749.016815,25
1689046749.0668192,24
1689046749.1168187,24
1689046749.1558142,24
1689046749.2008302,23
1689046749.2508197,32
1689046749.300819,56
1689046749.3508189,71
1689046749.4008143,68
1689046749.4508147,61
1689046749.5008144,56
1689046749.5508196,51
1689046749.600814,48
1689046749.650814,46
1689046749.7008188,43
1689046749.750813,39
1689046749.8008184,33
1689046749.8508341,28
1689046749.9008348,25
1689046749.9508345,24
1689046750.0008345,22
1689046750.050834,21
1689046750.1008391,20
1689046750.1508384,40
1689046750.1838384,65
1689046750.2338386,70
1689046750.2838383,67
1689046750.333961,61
1689046750.383838,57
1689046750.4339797,54
1689046750.483976,53
1689046750.5339787,52
1689046750.5839787,48
1689046750.6339786,43
1689046750.6839783,39
1689046750.7339737,36
1689046750.7839785,34
1689046750.8339741,33
1689046750.883978,32
1689046750.9339733,31
1689046750.9839737,33
1689046751.0339735,46
1689046751.0839775,62
1689046751.1339726,64
1689046751.167973,59
1689046751.2179801,57
1689046751.267978,54
1689046751.3179774,50
1689046751.3679733,48
1689046751.4179769,46
1689046751.4679728,43
1689046751.517973,40
1689046751.5679727,36
1689046751.6180394,33
1689046751.6679769,32
1689046751.7179773,31
1689046751.767973,31
1689046751.8179717,30
1689046751.8689716,30
1689046751.9179764,41
1689046751.967972,57
1689046752.0179758,61
1689046752.067978,56
1689046752.1179771,52
1689046752.156976,48
1689046752.200972,47
1689046752.2509708,45
1689046752.3009715,44
1689046752.3509758,41
1689046752.4009714,37
1689046752.450971,34
1689046752.5009706,31
1689046752.5509715,30
1689046752.600971,30
1689046752.6509714,29
1689046752.7009711,27
1689046752.7509747,25
1689046752.800971,33
1689046752.85097,54
1689046752.90097,60
1689046752.9509747,56
1689046753.0009706,49
1689046753.050971,46
1689046753.1009703,43
1689046753.1509693,42
1689046753.1839702,41
1689046753.23397,40
1689046753.2839754,37
1689046753.3339736,30
1689046753.383969,26
1689046753.4339688,24
1689046753.4839697,23
1689046753.5339687,21
1689046753.5839689,19
1689046753.6339734,15
1689046753.68497,19
1689046753.7339685,42
1689046753.7839682,62
1689046753.8339689,60
1689046753.8839734,51
1689046753.9339688,43
1689046753.983969,39
1689046754.034973,38
1689046754.0849776,38
1689046754.135011,36
1689046754.1679685,30
1689046754.2179723,26
1689046754.2679691,21
1689046754.3179677,18
1689046754.3689685,17
1689046754.4179678,17
1689046754.467972,17
1689046754.5179722,17
1689046754.5679677,18
1689046754.6199715,39
1689046754.6679666,66
1689046754.7179675,72
1689046754.7679718,63
1689046754.8179672,53
1689046754.8679714,45
1689046754.9179666,42
1689046754.9679682,43
1689046755.017967,42
1689046755.067967,38
1689046755.1179662,31
1689046755.156971,25
1689046755.2039666,22
1689046755.253971,20
1689046755.3039708,20
1689046755.353973,20
1689046755.4039657,19
1689046755.4539666,23
1689046755.5039704,48
1689046755.5539663,73
1689046755.6041152,73
1689046755.6544304,64
1689046755.7044308,55
1689046755.754426,48
1689046755.8044257,45
1689046755.8544266,46
1689046755.9044302,44
1689046755.9544258,39
1689046756.0044312,31
1689046756.054432,25
1689046756.1044257,22
1689046756.1544297,21
1689046756.1874251,21
1689046756.2374299,20
1689046756.287425,19
1689046756.3374293,19
1689046756.387426,40
1689046756.437425,68
1689046756.4874294,76
1689046756.5374293,68
1689046756.587429,60
1689046756.6366506,54
1689046756.6866462,51
1689046756.7366507,51
1689046756.7869349,49
1689046756.8368342,45
1689046756.8878849,40
1689046756.938387,34
1689046756.9883876,31
1689046757.0383914,30
1689046757.0883875,31
1689046757.1383872,33
1689046757.1714478,33
1689046757.2213924,32
1689046757.2713861,42
1689046757.3213909,62
1689046757.3713865,71
1689046757.421391,66
1689046757.471391,60
1689046757.5213864,56
1689046757.5713859,52
1689046757.6211889,50
1689046757.6712832,49
1689046757.7212534,45
1689046757.770545,40
1689046757.820728,36
1689046757.870728,32
1689046757.920728,31
1689046757.970727,30
1689046758.020732,30
1689046758.0707273,29
1689046758.1207273,28
1689046758.1567273,38
1689046758.203727,50
1689046758.2537272,64
1689046758.3037271,62
1689046758.3537266,56
1689046758.4037333,51
1689046758.4537263,48
1689046758.5041687,46
1689046758.5538783,45
1689046758.6038785,43
1689046758.653878,39
1689046758.703882,34
1689046758.7538774,31
1689046758.803883,29
1689046758.8538768,28
1689046758.903882,27
1689046758.9540303,26
1689046759.0044649,24
1689046759.0544653,33
1689046759.1044664,53
1689046759.1544602,63
1689046759.19246,58
1689046759.2405024,52
1689046759.2900252,47
1689046759.3400295,44
1689046759.3990293,42
1689046759.4490275,42
1689046759.4990249,40
1689046759.5490248,34
1689046759.5990293,27
1689046759.649024,23
1689046759.6990242,20
1689046759.7490292,21
1689046759.7990289,21
1689046759.84933,21
1689046759.8993309,23
1689046759.9493296,42
1689046759.9993358,62
1689046760.0493305,62
1689046760.0993352,53
1689046760.1493342,44
1689046760.18233,38
1689046760.232335,37
1689046760.28233,37
1689046760.3323338,36
1689046760.3853295,32
1689046760.4346418,25
1689046760.4847643,18
1689046760.5347648,14
1689046760.584766,12
1689046760.6347692,12
1689046760.684765,13
1689046760.734769,14
1689046760.7847638,33
1689046760.835333,63
1689046760.8849003,73
1689046760.9354055,65
1689046760.9854052,54
1689046761.0354092,45
1689046761.0854096,41
1689046761.135405,43
1689046761.1684482,43
1689046761.2184496,40
1689046761.2684531,33
1689046761.3184488,26
1689046761.3684487,21
1689046761.4184484,20
1689046761.468449,20
1689046761.5184486,20
1689046761.5694497,21
1689046761.6204488,39
1689046761.6704535,70
1689046761.7184525,75
1689046761.768448,67
1689046761.8184476,58
1689046761.868448,50
1689046761.918453,46
1689046761.9674473,46
1689046762.018452,45
1689046762.0684533,40
1689046762.1184542,34
1689046762.1574512,29
1689046762.2024467,27
1689046762.2524464,26
1689046762.302447,26
1689046762.352451,26
1689046762.4014468,26
1689046762.4524474,46
1689046762.5024471,70
1689046762.552446,69
1689046762.6024468,63
1689046762.6524467,56
1689046762.7024462,50
1689046762.7524502,46
1689046762.8014462,45
1689046762.851588,43
1689046762.9016855,40
1689046762.952405,33
1689046763.002405,27
1689046763.0515308,25
1689046763.1014628,24
1689046763.152463,25
1689046763.190462,24
1689046763.2384624,24
1689046763.2884684,39
1689046763.337462,62
1689046763.3884575,71
1689046763.4384582,66
1689046763.4884617,59
1689046763.538458,54
1689046763.587462,50
1689046763.6384587,48
1689046763.6884568,47
1689046763.7379525,44
1689046763.7879527,40
1689046763.837949,37
1689046763.8879526,35
1689046763.9379497,35
1689046763.9875588,34
1689046764.0375602,34
1689046764.0875592,32
1689046764.1375544,38
1689046764.1705537,54
1689046764.2205586,64
1689046764.2705588,66
1689046764.3205595,62
1689046764.3705544,57
1689046764.4205537,52
1689046764.4705582,49
1689046764.5205579,48
1689046764.5705538,46
1689046764.620558,41
1689046764.670558,37
1689046764.720558,34
1689046764.770553,32
1689046764.8205576,31
1689046764.884557,31
1689046764.934554,30
1689046764.984553,28
1689046765.0345528,35
1689046765.0845578,53
1689046765.1345527,63
1689046765.1685526,60
1689046765.2235525,55
1689046765.273557,51
1689046765.3235593,48
1689046765.3825567,46
1689046765.4325523,45
1689046765.4825518,42
1689046765.5325522,38
1689046765.5825565,34
1689046765.6325526,32
1689046765.6825562,32
1689046765.7325523,31
1689046765.7825518,30
1689046765.832554,29
1689046765.8825507,26
1689046765.932551,33
1689046765.9825509,50
1689046766.0325518,62
1689046766.0825515,59
1689046766.1325552,53
1689046766.1655567,49
1689046766.2215552,47
1689046766.271551,46
1689046766.321551,45
1689046766.3715503,43
1689046766.4215498,40
1689046766.4715548,37
1689046766.5215545,33
1689046766.5715501,30
1689046766.6215498,29
1689046766.6721046,29
1689046766.7221096,29
1689046766.7721093,27
1689046766.8221097,31
1689046766.8721051,47
1689046766.9221098,60
1689046766.972105,58
1689046767.0221097,50
1689046767.0721092,44
1689046767.122109,41
1689046767.1581087,40
1689046767.2051039,40
1689046767.2551088,39
1689046767.3051045,34
1689046767.3551085,29
1689046767.405104,24
1689046767.4551044,22
1689046767.5051148,21
1689046767.5551145,19
1689046767.6046643,17
1689046767.6547017,14
1689046767.7047157,11
1689046767.7547016,24
1689046767.8047006,53
1689046767.8547003,64
1689046767.9047008,56
1689046767.9547002,44
1689046768.004705,36
1689046768.0547054,33
1689046768.1047063,35
1689046768.1546998,37
1689046768.1877,32
1689046768.2377164,27
1689046768.2884202,20
1689046768.3381028,14
1689046768.3881097,12
1689046768.4381025,11
1689046768.4881072,12
1689046768.5381026,12
1689046768.5881035,13
1689046768.6381073,39
1689046768.6881027,72
1689046768.7381027,78
1689046768.7881083,65
1689046768.8381019,51
1689046768.8881018,40
1689046768.938106,38
1689046768.9881063,40
1689046769.0381017,40
1689046769.0881069,34
1689046769.1381023,26
1689046769.1721025,20
1689046769.2221022,17
1689046769.2721539,15
1689046769.322106,15
1689046769.3721015,15
1689046769.422106,15
1689046769.4721017,35
1689046769.522106,70
1689046769.5721054,84
1689046769.6221054,75
1689046769.672101,62
1689046769.7221057,51
1689046769.7721004,45
1689046769.8221006,46
1689046769.8721023,47
1689046769.9221013,43
1689046769.972106,36
1689046770.0221045,28
1689046770.0721009,23
1689046770.122101,20
1689046770.1581051,19
1689046770.2081,20
1689046770.2581048,20
1689046770.3111045,26
1689046770.3691041,54
1689046770.4190998,83
1689046770.4691,80
1689046770.5191038,71
1689046770.5690997,63
1689046770.6190996,57
1689046770.6691036,54
1689046770.7190993,53
1689046770.7691035,49
1689046770.8191,42
1689046770.8691032,37
1689046770.919103,33
1689046770.969103,34
1689046771.0191033,35
1689046771.0691047,35
1689046771.1190987,32
1689046771.1581035,34
1689046771.202103,44
1689046771.2521026,66
1689046771.3030987,71
1689046771.3531027,65
1689046771.4030988,58
1689046771.4530976,53
1689046771.5031025,50
1689046771.5530984,48
1689046771.603102,46
1689046771.653102,41
1689046771.7030976,36
1689046771.7530978,32
1689046771.8031018,30
1689046771.8530974,29
1689046771.903097,30
1689046771.9530976,29
1689046772.0031016,28
1689046772.0531015,30
1689046772.1030972,46
1689046772.1530972,66
1689046772.1870973,62
1689046772.2360973,57
1689046772.286101,51
1689046772.3361008,48
1689046772.386097,46
1689046772.436101,45
1689046772.4860964,43
1689046772.5361006,39
1689046772.5860963,33
1689046772.6361005,29
1689046772.6860964,27
1689046772.7361827,26
1689046772.7856767,26
1689046772.8356807,25
1689046772.8856814,25
1689046772.9356768,40
1689046772.9856803,60
1689046773.0356753,62
1689046773.0856805,53
1689046773.1356754,46
1689046773.1691973,41
1689046773.219403,40
1689046773.2694023,40
1689046773.319398,40
1689046773.369402,34
1689046773.419403,25
1689046773.4694016,17
1689046773.5194023,13
1689046773.5693967,12
1689046773.6193972,12
1689046773.6694014,12
1689046773.7193968,15
1689046773.7723963,39
1689046773.8193972,65
1689046773.8693962,68
1689046773.9186854,58
1689046773.9686263,51
1689046774.0186257,42
1689046774.0686219,40
1689046774.1186256,41
1689046774.1576223,40
1689046774.2026253,37
1689046774.2526214,29
1689046774.3026233,23
1689046774.3526213,20
1689046774.4026253,19
1689046774.4526255,20
1689046774.502625,19
1689046774.552621,34
1689046774.6026247,62
1689046774.652625,74
1689046774.702625,69
1689046774.7526248,59
1689046774.80262,51
1689046774.8526244,45
1689046774.9026248,46
1689046774.9526198,47
1689046775.0026243,44
1689046775.0526214,39
1689046775.1026192,33
1689046775.1526244,30
1689046775.1856194,30
1689046775.235619,31
1689046775.285408,31
1689046775.3359458,36
1689046775.3862667,55
1689046775.4362705,70
1689046775.4862664,68
1689046775.5362704,61
1689046775.5862656,56
1689046775.6362667,53
1689046775.686266,51
1689046775.7362666,50
1689046775.7862706,47
1689046775.8362699,43
1689046775.8862658,40
1689046775.9362657,38
1689046775.9862695,37
1689046776.0362644,37
1689046776.0862694,37
1689046776.1362658,41
1689046776.1702647,54
1689046776.2202706,58
1689046776.2702692,62
1689046776.320265,56
1689046776.3702664,52
1689046776.4202693,49
1689046776.470269,47
1689046776.5202649,46
1689046776.570265,43
1689046776.6202686,40
1689046776.670264,36
1689046776.7202642,34
1689046776.7702644,34
1689046776.8202643,34
1689046776.8702688,33
1689046776.9202683,32
1689046776.970268,41
1689046777.0212643,55
1689046777.0702686,58
1689046777.1202679,54
1689046777.159263,50
1689046777.2063735,48
1689046777.2563891,44
1689046777.30639,42
1689046777.35639,40
1689046777.4058728,37
1689046777.4558203,32
1689046777.505813,29
1689046777.5558083,27
1689046777.605809,26
1689046777.6558135,25
1689046777.7058132,23
1689046777.755813,21
1689046777.8058085,31
1689046777.8558083,49
1689046777.9068093,54
1689046777.9558077,49
1689046778.0058124,43
1689046778.055822,40
1689046778.1058087,36
1689046778.1558123,36
1689046778.1888077,35
1689046778.2388072,33
1689046778.2888076,29
1689046778.3388078,25
1689046778.388814,21
1689046778.438812,20
1689046778.488807,21
1689046778.5388148,22
1689046778.5888073,26
1689046778.6388073,43
1689046778.6888075,57
1689046778.7388115,55
1689046778.788811,48
1689046778.8388066,42
1689046778.9028108,38
1689046778.952807,38
1689046779.0028074,39
1689046779.0528126,37
1689046779.102811,32
1689046779.1527452,27
1689046779.1917408,25
1689046779.2387404,24
1689046779.288741,24
1689046779.338741,24
1689046779.3887408,29
1689046779.43874,45
1689046779.4887395,57
1689046779.5387402,55
1689046779.588744,49
1689046779.638739,44
1689046779.6887398,40
1689046779.7387397,40
1689046779.788739,40
1689046779.8387442,38
1689046779.8887439,34
1689046779.9387405,30
1689046779.988745,28
1689046780.0387397,28
1689046780.0887432,28
1689046780.1388109,28
1689046780.173317,27
1689046780.2283206,30
1689046780.2783203,45
1689046780.3283203,59
1689046780.3873203,59
1689046780.437321,56
1689046780.4873157,52
1689046780.5373163,49
1689046780.586464,47
1689046780.6370702,46
1689046780.6868825,43
1689046780.7374268,40
1689046780.7874262,38
1689046780.8374262,36
1689046780.887431,35
1689046780.9374273,35
1689046780.9874308,35
1689046781.0374262,33
1689046781.0874257,36
1689046781.137426,48
1689046781.1704261,57
1689046781.220426,57
1689046781.270426,65
1689046781.32043,58
1689046781.3704264,53
1689046781.4204278,48
1689046781.470426,46
1689046781.52043,44
1689046781.5694258,39
1689046781.620036,33
1689046781.6700392,28
1689046781.7200387,25
1689046781.7700386,25
1689046781.8200433,24
1689046781.8700552,23
1689046781.920043,21
1689046781.9710433,33
1689046782.0200427,61
1689046782.0700426,75
1689046782.1200385,68
1689046782.1590433,59
1689046782.203039,55
1689046782.2530391,47
1689046782.3030431,43
1689046782.3530421,40
1689046782.4030423,34
1689046782.4530423,27
1689046782.5030425,11
1689046782.553042,2
1689046782.6030378,0
1689046782.653042,0
1689046782.703037,0
1689046782.7526674,0
1689046782.8027017,0
1689046782.8527017,18
1689046782.902717,71
1689046782.9527175,79
1689046783.0027163,68
1689046783.0527854,54
1689046783.102717,43
1689046783.1527214,38
1689046783.186716,38
1689046783.2367206,39
1689046783.2867205,34
1689046783.3367171,24
1689046783.3867204,15
1689046783.4367166,9
1689046783.4867206,7
1689046783.5367155,9
1689046783.5867157,9
1689046783.6367168,9
1689046783.6867204,33
1689046783.7367163,76
1689046783.7867212,93
1689046783.8367178,84
1689046783.8867195,72
1689046783.9367146,63
1689046783.9867637,56
1689046784.0369315,55
1689046784.0869267,55
1689046784.1369317,49
1689046784.1699274,40
1689046784.219931,36
1689046784.269931,31
1689046784.3199265,30
1689046784.3739305,31
1689046784.4229305,31
1689046784.4729264,27
1689046784.5229304,34
1689046784.5729263,64
1689046784.6229253,88
1689046784.67293,85
1689046784.7229266,73
1689046784.77293,66
1689046784.8229299,60
1689046784.8729253,55
1689046784.9229248,53
1689046784.972925,49
1689046785.0229294,40
1689046785.0729294,32
1689046785.1229248,25
1689046785.1589293,21
1689046785.2059245,20
1689046785.2559242,18
1689046785.3059254,12
1689046785.3559241,7
1689046785.405925,26
1689046785.4559247,65
1689046785.5059288,79
1689046785.5559304,66
1689046785.6059253,52
1689046785.6559286,42
1689046785.7059243,35
1689046785.7559283,32
1689046785.8059285,31
1689046785.8559244,24
1689046785.9059284,13
1689046785.95593,1
1689046786.0059247,0
1689046786.0569277,0
1689046786.1069236,0
1689046786.1569276,0
1689046786.1899233,0
1689046786.2399273,0
1689046786.2899232,41
1689046786.3398273,94
1689046786.3899028,97
1689046786.4399033,59
1689046786.4899085,51
1689046786.539903,44
1689046786.589903,41
1689046786.6399074,42
1689046786.689902,41
1689046786.739902,36
1689046786.790041,30
1689046786.84011,26
1689046786.8900962,25
1689046786.9401019,27
1689046786.990096,29
1689046787.0401,31
1689046787.0900955,40
1689046787.1401,60
1689046787.1730998,72
1689046787.2231,70
1689046787.273095,63
1689046787.3230958,58
1689046787.373096,53
1689046787.422982,50
1689046787.4729865,50
1689046787.5229821,47
1689046787.5729864,43
1689046787.6229825,39
1689046787.672982,35
1689046787.722982,33
1689046787.772986,33
1689046787.8229866,32
1689046787.8749857,31
1689046787.9229813,39
1689046787.9729855,56
1689046788.022981,65
1689046788.0729816,60
1689046788.1229818,54
1689046788.158981,51
1689046788.2089806,48
1689046788.2589865,46
1689046788.308985,45
1689046788.3709817,42
1689046788.4209814,37
1689046788.470985,31
1689046788.520981,27
1689046788.570985,25
1689046788.620985,23
1689046788.6709845,22
1689046788.7209795,18
1689046788.7709858,19
1689046788.8219802,47
1689046788.87098,62
1689046788.9209795,58
1689046788.9709837,49
1689046789.0209792,43
1689046789.0709841,39
1689046789.1209798,38
1689046789.1599836,39
1689046789.2039788,37
1689046789.2539835,32
1689046789.3039834,25
1689046789.353979,19
1689046789.40398,15
1689046789.4539783,16
1689046789.5039828,17
1689046789.553979,18
1689046789.6039844,35
1689046789.6539829,61
1689046789.7039785,70
1689046789.753979,64
1689046789.8039832,57
1689046789.8539786,51
1689046789.9039826,48
1689046789.9539783,47
1689046790.003984,47
1689046790.0539823,44
1689046790.1039824,40
1689046790.1539772,39
1689046790.1869783,39
1689046790.236982,40
1689046790.2869773,40
1689046790.3369775,40
1689046790.3869817,39
1689046790.4369814,48
1689046790.4869773,63
1689046790.5369813,65
1689046790.5869768,60
1689046790.6369815,56
1689046790.6869767,53
1689046790.7369814,49
1689046790.786981,47
1689046790.836981,45
1689046790.8869805,41
1689046790.9369776,38
1689046790.986976,34
1689046791.0369804,30
1689046791.0869765,27
1689046791.1369765,24
1689046791.1709762,22
1689046791.2209764,20
1689046791.2709801,24
1689046791.3219774,43
1689046791.3719778,58
1689046791.420981,56
1689046791.4709756,48
1689046791.5209758,42
1689046791.5709753,38
1689046791.620981,37
1689046791.6709795,37
1689046791.720975,34
1689046791.7709796,28
1689046791.8209748,22
1689046791.870975,18
1689046791.9209793,16
1689046791.9709744,17
1689046792.0209742,18
1689046792.0714643,17
1689046792.1213572,24
1689046792.1594515,49
1689046792.203456,64
1689046792.2534564,66
1689046792.3034523,59
1689046792.353451,51
1689046792.4034512,45
1689046792.4534557,44
1689046792.5034513,46
1689046792.5544522,45
1689046792.6044514,40
1689046792.6534562,36
1689046792.7034507,32
1689046792.7535224,32
1689046792.8034549,35
1689046792.8534548,39
1689046792.9034548,40
1689046792.9534504,44
1689046793.00345,59
1689046793.0534546,68
1689046793.1034505,65
1689046793.1534543,60
1689046793.1924584,55
1689046793.2394495,52
1689046793.2894495,49
1689046793.3394542,48
1689046793.3894541,45
1689046793.4394498,42
1689046793.4894538,38
1689046793.5394552,35
1689046793.5894535,33
1689046793.639454,31
1689046793.6894495,30
1689046793.7394543,28
1689046793.7894487,25
1689046793.8394492,36
1689046793.8894534,53
1689046793.9394486,57
1689046793.9894528,51
1689046794.0394542,44
1689046794.0894482,40
1689046794.1394486,37
1689046794.1734488,36
1689046794.2284527,35
1689046794.278448,32
1689046794.3284478,25
1689046794.3874536,20
1689046794.4374526,16
1689046794.487448,15
1689046794.538448,15
1689046794.5874522,16
1689046794.6374478,15
1689046794.6874475,18
1689046794.7374477,42
1689046794.787452,67
1689046794.8374517,69
1689046794.8874469,61
1689046794.9374468,53
1689046794.987451,47
1689046795.0374477,45
1689046795.0874517,46
1689046795.1374469,44
1689046795.1704469,39
1689046795.2204514,34
1689046795.2714467,30
1689046795.3204508,29
1689046795.372448,32
1689046795.420451,35
1689046795.4704466,36
1689046795.5214508,37
1689046795.5720375,50
1689046795.6205676,68
1689046795.6705656,73
1689046795.7205656,67
1689046795.7710993,62
1689046795.8211055,57
1689046795.871101,53
1689046795.921105,51
1689046795.9711006,49
1689046796.0211022,45
1689046796.071105,40
1689046796.1211047,38
1689046796.1601045,37
1689046796.2070997,36
1689046796.2571046,35
1689046796.3071005,33
1689046796.357104,31
1689046796.4071083,30
1689046796.4571044,41
1689046796.5071042,58
1689046796.5571039,60
1689046796.6070995,55
1689046796.6571035,50
1689046796.7070994,45
1689046796.7571037,42
1689046796.807104,40
1689046796.8570988,36
1689046796.9070992,30
1689046796.9571033,24
1689046797.0070984,17
1689046797.0571046,12
1689046797.1071265,8
1689046797.1571307,7
1689046797.1911306,7
1689046797.241127,7
1689046797.291126,6
1689046797.341131,14
1689046797.3911304,43
1689046797.441126,69
1689046797.4911268,67
1689046797.541125,56
1689046797.59113,46
1689046797.641126,40
1689046797.6911297,40
1689046797.7411256,41
1689046797.79113,39
1689046797.841126,33
1689046797.8911295,26
1689046797.9411254,22
1689046797.9911296,21
1689046798.0411258,24
1689046798.091129,28
1689046798.1411254,30
1689046798.1741307,43
1689046798.224129,59
1689046798.2741253,76
1689046798.3241298,74
1689046798.374124,67
1689046798.4241316,61
1689046798.4741313,57
1689046798.5241282,55
1689046798.5741253,53
1689046798.624125,48
1689046798.6741283,43
1689046798.724124,38
1689046798.7741282,35
1689046798.8241243,33
1689046798.8741243,33
1689046798.9241228,33
1689046798.9741237,31
1689046799.0241277,37
1689046799.074129,54
1689046799.1241229,64
1689046799.1601248,59
1689046799.2101233,53
1689046799.2601273,46
1689046799.3101225,41
1689046799.3721228,38
1689046799.421127,37
1689046799.471127,35
1689046799.5211225,29
1689046799.5711267,21
1689046799.6211221,14
1689046799.671122,10
1689046799.721123,10
1689046799.771122,11
1689046799.821122,11
1689046799.873129,18
1689046799.924126,46
1689046799.972126,69
1689046800.0221257,66
1689046800.0716066,56
1689046800.121716,46
1689046800.159654,40
1689046800.2052772,39
1689046800.2552736,40
1689046800.305277,39
1689046800.3552725,32
1689046800.4052722,24
1689046800.4552772,19
1689046800.5052726,17
1689046800.5552742,17
1689046800.6052766,17
1689046800.6552727,19
1689046800.7052765,43
1689046800.7552762,70
1689046800.8052728,74
1689046800.8692741,66
1689046800.9192762,55
1689046800.9692764,48
1689046801.0192733,47
1689046801.0692759,49
1689046801.1192763,48
1689046801.160276,44
1689046801.2022727,41
1689046801.2522717,40
1689046801.3022707,40
1689046801.352271,40
1689046801.4052753,40
1689046801.455272,39
1689046801.5052755,48
1689046801.555272,66
1689046801.6052754,68
1689046801.6552768,63
1689046801.7052774,58
1689046801.7552722,53
1689046801.805275,50
1689046801.855275,48
1689046801.9052746,46
1689046801.9552696,42
1689046802.00527,37
1689046802.05527,32
1689046802.1052713,28
1689046802.1552715,25
1689046802.18827,23
1689046802.238269,22
1689046802.2882698,18
1689046802.3382738,24
1689046802.3912737,44
1689046802.4412744,58
1689046802.4912698,52
1689046802.54127,44
1689046802.5912695,39
1689046802.641273,35
1689046802.6912687,35
1689046802.741038,34
1689046802.7910366,30
1689046802.8404412,23
1689046802.890442,18
1689046802.9404461,14
1689046802.9904418,14
1689046803.0404415,16
1689046803.0904417,17
1689046803.1404457,20
1689046803.1754465,40
1689046803.2244456,59
1689046803.2744453,71
1689046803.3244417,64
1689046803.3744404,54
1689046803.4244456,46
1689046803.474445,43
1689046803.5244453,45
1689046803.5744448,47
1689046803.6244407,43
1689046803.6744456,38
1689046803.7254405,33
1689046803.77444,31
1689046803.8244405,31
1689046803.8744442,32
1689046803.9244456,33
1689046803.97544,39
1689046804.0244403,55
1689046804.074444,71
1689046804.1244411,69
1689046804.160439,63
1689046804.207446,60
1689046804.2574399,55
1689046804.3074436,52
1689046804.3574398,50
1689046804.4074438,46
1689046804.4574401,41
1689046804.5074432,37
1689046804.557444,34
1689046804.608334,33
1689046804.6583333,32
1689046804.7083333,31
1689046804.7583284,30
1689046804.8083298,28
1689046804.858329,38
1689046804.9083328,55
1689046804.9583323,59
1689046805.0083327,52
1689046805.0583286,44
1689046805.1083279,40
1689046805.1583276,37
1689046805.1913285,35
1689046805.2413287,35
1689046805.291328,30
1689046805.341332,23
1689046805.391328,16
1689046805.4413319,10
1689046805.4913313,8
1689046805.541332,8
1689046805.5913315,9
1689046805.6413317,9
1689046805.6913276,7
1689046805.7413318,16
1689046805.7913268,49
1689046805.8413312,74
1689046805.8913283,69
1689046805.9413335,61
1689046805.991327,48
1689046806.0413313,40
1689046806.0913267,38
1689046806.141327,41
1689046806.1753306,39
1689046806.2253265,34
1689046806.275327,27
1689046806.3253322,21
1689046806.3753302,19
1689046806.425326,22
1689046806.4753325,26
1689046806.525326,30
1689046806.5753267,43
1689046806.6253302,69
1689046806.6753252,82
1689046806.7253323,77
1689046806.7753246,68
1689046806.8253255,61
1689046806.875325,57
1689046806.9253254,56
1689046806.9753294,54
1689046807.0253246,49
1689046807.0753243,43
1689046807.125325,38
1689046807.1613243,33
1689046807.2083294,32
1689046807.2583256,31
1689046807.3083243,30
1689046807.3583288,29
1689046807.408329,34
1689046807.4583285,52
1689046807.5083292,66
1689046807.5583284,63
1689046807.608324,54
1689046807.6583252,48
1689046807.708328,43
1689046807.758324,40
1689046807.8083239,39
1689046807.858328,35
1689046807.908324,26
1689046807.9583278,17
1689046808.0083268,9
1689046808.0583384,4
1689046808.1083486,1
1689046808.158348,0
1689046808.192348,0
1689046808.2423432,0
1689046808.2923443,0
1689046808.342344,20
1689046808.3943448,60
1689046808.4434164,79
1689046808.4943442,68
1689046808.545343,53
1689046808.5943422,41
1689046808.644177,37
1689046808.6937017,40
1689046808.7437022,41
1689046808.7936985,38
1689046808.8437016,30
1689046808.8936973,22
1689046808.9436975,17
1689046808.9936967,17
1689046809.0437021,19
1689046809.0937011,19
1689046809.1436987,22
1689046809.177697,49
1689046809.2276964,74
1689046809.2776968,90
1689046809.327696,83
1689046809.385702,72
1689046809.4356964,63
1689046809.4856956,60
1689046809.535696,60
1689046809.5856977,57
1689046809.6357028,50
1689046809.685696,43
1689046809.7357008,38
1689046809.7856958,35
1689046809.8356972,35
1689046809.8857,34
1689046809.9356956,32
1689046809.9857,33
1689046810.0356956,49
1689046810.0856953,67
1689046810.135697,67
1689046810.1696951,58
1689046810.2196991,52
1689046810.2696967,45
1689046810.319699,41
1689046810.371694,40
1689046810.4216988,39
1689046810.4716966,33
1689046810.5216987,23
1689046810.571696,14
1689046810.6216986,8
1689046810.6716943,4
1689046810.7216938,3
1689046810.772338,3
1689046810.8214986,4
1689046810.8734953,26
1689046810.9214983,62
1689046810.9714985,75
1689046811.0214937,64
1689046811.071494,51
1689046811.121498,40
1689046811.1604936,36
1689046811.2054996,38
1689046811.255498,41
1689046811.3054945,39
1689046811.3554974,33
1689046811.4054937,26
1689046811.4554975,22
1689046811.5054932,21
1689046811.5554974,22
1689046811.6054974,23
1689046811.655494,45
1689046811.7054956,75
1689046811.7554924,84
1689046811.8054924,79
1689046811.869493,72
1689046811.9194996,64
1689046811.9694965,60
1689046812.0194921,59
1689046812.0694964,56
1689046812.1194975,52
1689046812.1614928,48
1689046812.2024937,46
1689046812.2524962,43
1689046812.302497,41
1689046812.3524919,39
1689046812.405496,36
1689046812.455491,42
1689046812.505493,58
1689046812.5554907,65
1689046812.60581,61
1689046812.6558964,56
1689046812.7058344,51
1689046812.75584,48
1689046812.8058383,46
1689046812.855835,44
1689046812.9058337,40
1689046812.955835,34
1689046813.0058336,28
1689046813.055838,24
1689046813.105838,20
1689046813.1558392,16
1689046813.188838,11
1689046813.2388341,7
1689046813.2888377,14
1689046813.341833,40
1689046813.3918374,59
1689046813.4418325,55
1689046813.4918325,46
1689046813.5418327,39
1689046813.5918322,34
1689046813.641832,34
1689046813.6918368,36
1689046813.7418327,33
1689046813.7918322,28
1689046813.8418322,23
1689046813.8918374,19
1689046813.9418364,17
1689046813.9918313,16
1689046814.0418334,16
1689046814.091836,28
1689046814.1418324,55
1689046814.1748316,72
1689046814.2248309,70
1689046814.2748358,61
1689046814.3248363,52
1689046814.3748357,45
1689046814.4248357,43
1689046814.474833,44
1689046814.5248308,42
1689046814.5748367,36
1689046814.624831,30
1689046814.6748352,28
1689046814.7248323,29
1689046814.7748349,29
1689046814.8248348,27
1689046814.8748324,32
1689046814.9248366,54
1689046814.9748306,74
1689046815.0248306,74
1689046815.0748372,67
1689046815.1248295,61
1689046815.1618297,57
1689046815.2088137,55
1689046815.258774,54
1689046815.308774,52
1689046815.358778,47
1689046815.4087732,41
1689046815.458774,39
1689046815.5087802,37
1689046815.5587776,35
1689046815.6087787,34
1689046815.6587744,30
1689046815.7087743,29
1689046815.7587793,42
1689046815.8087745,58
1689046815.858773,58
1689046815.908774,53
1689046815.9587777,49
1689046816.0087729,45
1689046816.0587742,43
1689046816.108772,43
1689046816.1587725,41
1689046816.1917727,38
1689046816.2417717,35
1689046816.291772,31
1689046816.3417764,29
1689046816.3917723,29
1689046816.4417722,28
1689046816.4917724,24
1689046816.5417728,28
1689046816.591772,45
1689046816.6417732,56
1689046816.691776,52
1689046816.7417767,43
1689046816.7917724,37
1689046816.8417718,32
1689046816.8917751,33
1689046816.9417713,35
1689046816.9917715,32
1689046817.0417707,26
1689046817.0917711,20
1689046817.1417751,17
1689046817.1937752,17
1689046817.2417712,19
1689046817.291771,35
1689046817.3417716,58
1689046817.3917706,66
1689046817.4417748,60
1689046817.4917748,51
1689046817.5417762,43
1689046817.5917714,40
1689046817.6417708,42
1689046817.6917696,43
1689046817.741774,39
1689046817.791775,32
1689046817.841774,27
1689046817.8917701,27
1689046817.9417706,29
1689046817.991769,32
1689046818.04177,38
1689046818.0917695,55
1689046818.1417756,69
1689046818.1757734,68
1689046818.2257693,64
1689046818.2757735,58
1689046818.3257697,53
1689046818.3757737,51
1689046818.4257681,50
1689046818.4757729,47
1689046818.5257683,42
1689046818.5757735,38
1689046818.625768,35
1689046818.6757727,34
1689046818.7257726,34
1689046818.7757678,32
1689046818.8257728,30
1689046818.8757727,34
1689046818.9257696,50
1689046818.9757674,62
1689046819.0257685,60
1689046819.0757718,53
1689046819.125772,48
1689046819.161768,45
1689046819.208768,43
1689046819.2587676,42
1689046819.3087716,40
1689046819.3587673,35
1689046819.408771,28
1689046819.458772,23
1689046819.5087714,19
1689046819.5587714,16
1689046819.608771,15
1689046819.658767,12
1689046819.708484,8
1689046819.7590325,15
1689046819.8092363,43
1689046819.8592324,62
1689046819.9092317,56
1689046819.9592319,45
1689046820.0092404,36
1689046820.059233,31
1689046820.1092358,33
1689046820.1592314,35
1689046820.1932316,31
1689046820.2432308,27
1689046820.2932312,19
1689046820.3432353,15
1689046820.3932307,13
1689046820.4432352,14
1689046820.4932325,15
1689046820.543235,14
1689046820.593231,27
1689046820.6432345,47
1689046820.6932306,74
1689046820.7432313,72
1689046820.79323,60
1689046820.8432343,46
1689046820.9072373,42
1689046820.9572296,46
1689046821.0072308,47
1689046821.0572338,41
1689046821.1072326,35
1689046821.1572366,30
1689046821.190234,31
1689046821.2402346,33
1689046821.2902298,36
1689046821.3402371,36
1689046821.3902354,46
1689046821.4402294,66
1689046821.4902337,75
1689046821.540231,69
1689046821.590235,60
1689046821.6402302,54
1689046821.6902983,50
1689046821.7396674,49
1689046821.7903595,48
1689046821.8393993,43
1689046821.8900566,37
1689046821.9403431,31
1689046821.9895792,27
1689046822.039841,25
1689046822.0901642,24
1689046822.1399052,22
1689046822.1734889,23
1689046822.223955,34
1689046822.2726228,57
1689046822.3229861,67
1689046822.3740838,59
1689046822.4232821,50
1689046822.472414,43
1689046822.523125,40
1689046822.5732827,40
1689046822.6228178,40
1689046822.6728766,32
1689046822.7224362,22
1689046822.772739,12
1689046822.8227441,6
1689046822.8728898,4
1689046822.9230556,4
1689046822.972959,5
1689046823.0226047,5
1689046823.0744348,7
1689046823.124669,35
1689046823.1616457,68
1689046823.2073061,72
1689046823.256733,60
1689046823.307029,45
1689046823.3567617,35
1689046823.406644,32
1689046823.456918,37
1689046823.507166,39
1689046823.5571988,32
1689046823.6072989,24
1689046823.657432,18
1689046823.7071662,15
1689046823.7571447,14
1689046823.8071957,14
1689046823.8564365,13
1689046823.9065661,13
1689046823.9566474,44
1689046824.007359,82
1689046824.0567327,88
1689046824.1068726,79
1689046824.1570148,66
1689046824.1900904,56
1689046824.240036,54
1689046824.290137,56
1689046824.339707,54
1689046824.3899198,46
1689046824.440163,38
1689046824.4899733,33
1689046824.5395103,34
1689046824.5900795,38
1689046824.6400857,40
1689046824.6900854,42
1689046824.740085,48
1689046824.7900815,66
1689046824.840081,77
1689046824.8900802,73
1689046824.940081,65
1689046824.9900804,59
1689046825.0400815,54
1689046825.09008,51
1689046825.1400805,50
1689046825.174081,47
1689046825.2240818,42
1689046825.2740846,37
1689046825.324081,33
1689046825.37508,31
1689046825.4240842,31
1689046825.4740803,31
1689046825.5240843,30
1689046825.5740805,27
1689046825.6250792,23
1689046825.6750796,34
1689046825.7240837,56
1689046825.7740796,65
1689046825.8240838,56
1689046825.8736842,45
1689046825.9236898,38
1689046825.9736836,35
1689046826.0236888,35
1689046826.0736837,36
1689046826.1236837,31
1689046826.1616838,23
1689046826.206688,18
1689046826.2566876,13
1689046826.3066845,12
1689046826.3566842,13
1689046826.406684,14
1689046826.4566875,14
1689046826.5066826,13
1689046826.5566835,13
1689046826.6066878,43
1689046826.657296,74
1689046826.7072902,77
1689046826.7572932,64
1689046826.8072915,50
1689046826.856865,40
1689046826.9068708,39
1689046826.956864,43
1689046827.0068636,42
1689046827.0568638,35
1689046827.106863,26
1689046827.1568675,19
1689046827.1898675,16
1689046827.2398646,17
1689046827.2898688,20
1689046827.339863,24
1689046827.3898673,26
1689046827.4398627,40
1689046827.4898632,70
1689046827.539867,84
1689046827.5898628,78
1689046827.6398628,71
1689046827.6898665,66
1689046827.7398674,61
1689046827.7898664,59
1689046827.839863,56
1689046827.8898616,51
1689046827.9398632,43
1689046827.9898665,38
1689046828.039862,34
1689046828.0898657,32
1689046828.139862,31
1689046828.173862,31
1689046828.223861,29
1689046828.2738655,27
1689046828.3248613,35
1689046828.373885,58
1689046828.4240227,71
1689046828.4740262,67
1689046828.5240254,59
1689046828.5740228,53
1689046828.624021,48
1689046828.674025,44
1689046828.7240248,42
1689046828.7740211,38
1689046828.824026,31
1689046828.8740246,22
1689046828.9240246,15
1689046828.97402,10
1689046829.0240202,9
1689046829.074021,8
1689046829.1240258,8
1689046829.1630192,6
1689046829.207033,5
1689046829.25702,21
1689046829.3070197,58
1689046829.3570235,76
1689046829.407024,64
1689046829.4570196,54
1689046829.5070207,44
1689046829.5570185,40
1689046829.6070206,41
1689046829.6570194,42
1689046829.7070193,37
1689046829.7570198,28
1689046829.8070235,21
1689046829.8570187,17
1689046829.9070182,17
1689046829.9570227,19
1689046830.0070229,21
1689046830.0570183,21
1689046830.107019,33
1689046830.157018,64
1689046830.1910188,84
1689046830.241022,81
1689046830.291024,70
1689046830.3410175,60
1689046830.391022,55
1689046830.4410188,51
1689046830.491022,51
1689046830.5410175,49
1689046830.5910175,44
1689046830.641022,40
1689046830.6910198,37
1689046830.741017,37
1689046830.7910216,38
1689046830.8410218,40
1689046830.8910215,40
1689046830.9410212,39
1689046830.991017,47
1689046831.041021,66
1689046831.0910177,73
1689046831.1410213,68
1689046831.1740208,61
1689046831.2300208,57
1689046831.2800183,53
1689046831.3300169,51
1689046831.3910165,49
1689046831.4410172,44
1689046831.4910178,40
1689046831.5410213,35
1689046831.59102,32
1689046831.6413345,30
1689046831.6913378,29
1689046831.740337,27
1689046831.7913358,23
1689046831.8413374,17
1689046831.8903356,18
1689046831.9413404,40
1689046831.9913414,61
1689046832.0403368,59
1689046832.0913398,49
1689046832.1413357,41
1689046832.174336,38
1689046832.2303355,36
1689046832.280335,37
1689046832.3293364,36
1689046832.3913355,30
1689046832.4413395,23
1689046832.4913354,18
1689046832.5413344,16
1689046832.590335,16
1689046832.6404111,17
1689046832.6913393,16
1689046832.741339,15
1689046832.7913353,35
1689046832.8403385,65
1689046832.891334,74
1689046832.9413354,65
1689046832.991334,54
1689046833.0413349,45
1689046833.0903337,41
1689046833.141335,43
1689046833.1733346,42
1689046833.2243354,39
1689046833.273338,31
1689046833.324335,24
1689046833.374333,20
1689046833.4243336,20
1689046833.4743385,21
1689046833.5243392,23
1689046833.574333,24
1689046833.6253345,36
1689046833.674339,63
1689046833.724334,81
1689046833.774333,77
1689046833.824333,70
1689046833.8743386,66
1689046833.9243338,62
1689046833.9743366,61
1689046834.0243337,58
1689046834.0743368,54
1689046834.124332,47
1689046834.1623328,41
1689046834.2083364,40
1689046834.258335,37
1689046834.3083327,35
1689046834.3583362,34
1689046834.4083319,32
1689046834.4583316,32
1689046834.507336,42
1689046834.558332,55
1689046834.608331,67
1689046834.6583319,64
1689046834.7083323,59
1689046834.7583356,53
1689046834.8083324,51
1689046834.8583345,49
1689046834.908332,47
1689046834.9583304,43
1689046835.0083323,38
1689046835.0583305,34
1689046835.107332,31
1689046835.1583347,28
1689046835.1913314,23
1689046835.2413347,19
1689046835.2913303,13
1689046835.3413303,7
1689046835.3913302,1
1689046835.4403303,2
1689046835.4913344,30
1689046835.5413344,62
1689046835.5913305,65
1689046835.6413345,53
1689046835.6913345,43
1689046835.7413294,38
1689046835.7913296,35
1689046835.8403294,37
1689046835.8903334,35
1689046835.9413335,28
1689046835.9913301,19
1689046836.0411296,14
1689046836.0911267,11
1689046836.14106,12
1689046836.1742685,13
1689046836.2240064,13
1689046836.2740064,12
1689046836.3240101,14
1689046836.37401,40
1689046836.4240065,73
1689046836.474006,77
1689046836.5240061,65
1689046836.574006,56
1689046836.6240096,44
1689046836.6740048,40
1689046836.7240093,41
1689046836.7740045,40
1689046836.8240073,31
1689046836.888006,22
1689046836.938009,14
1689046836.9880044,13
1689046837.0380108,14
1689046837.0880089,14
1689046837.1380055,12
1689046837.1720054,25
1689046837.2330048,56
1689046837.2830038,86
1689046837.3330083,81
1689046837.3910038,68
1689046837.4410043,55
1689046837.4910085,46
1689046837.541005,44
1689046837.5910046,44
1689046837.6410081,40
1689046837.6910055,31
1689046837.7410054,23
1689046837.7910078,18
1689046837.841004,16
1689046837.8910034,15
1689046837.9410076,15
1689046837.9910033,13
1689046838.0410073,14
1689046838.091008,40
1689046838.141003,79
1689046838.1750033,88
1689046838.2300034,79
1689046838.2800028,67
1689046838.3300042,57
1689046838.391005,49
1689046838.4410038,49
1689046838.4910016,49
1689046838.541003,43
1689046838.5910027,36
1689046838.6410024,31
1689046838.6910064,32
1689046838.7410018,35
1689046838.7910032,38
1689046838.8410025,38
1689046838.891007,40
1689046838.941002,55
1689046838.9910011,75
1689046839.0410016,78
1689046839.0910058,71
1689046839.1410058,65
1689046839.1750054,60
1689046839.2246153,56
1689046839.2747672,53
1689046839.3247666,51
1689046839.374763,47
1689046839.4247668,40
1689046839.4747622,36
1689046839.5247614,34
1689046839.5747662,33
1689046839.6247663,32
1689046839.6747634,31
1689046839.724766,28
1689046839.7747657,26
1689046839.8257656,38
1689046839.8747637,58
1689046839.9247682,66
1689046839.9747655,61
1689046840.0247626,55
1689046840.0747755,51
1689046840.1247654,47
1689046840.163761,44
1689046840.2077608,43
1689046840.2577648,39
1689046840.307761,31
1689046840.3577652,22
1689046840.4077766,13
1689046840.4577599,9
1689046840.5074728,8
1689046840.5575566,8
1689046840.6075573,9
1689046840.6575565,10
1689046840.7075589,9
1689046840.7575574,23
1689046840.8075578,61
1689046840.857561,72
1689046840.907559,64
1689046840.957557,52
1689046841.0075562,42
1689046841.0575607,38
1689046841.1075623,40
1689046841.1575606,40
1689046841.1905606,36
1689046841.2405581,31
1689046841.2905562,23
1689046841.3405561,17
1689046841.3905563,15
1689046841.4405563,15
1689046841.49056,15
1689046841.540555,14
1689046841.5905554,24
1689046841.6415553,54
1689046841.691556,77
1689046841.741555,72
1689046841.791557,61
1689046841.841561,51
1689046841.8915548,44
1689046841.9415553,46
1689046841.9915607,49
1689046842.0415554,46
1689046842.0915558,41
1689046842.1415596,38
1689046842.1745548,37
1689046842.224559,37
1689046842.274554,39
1689046842.3245552,40
1689046842.3755553,42
1689046842.4245605,52
1689046842.474556,68
1689046842.5245583,72
1689046842.5745542,67
1689046842.6245537,61
1689046842.674559,56
1689046842.7245586,53
1689046842.7745585,51
1689046842.8245578,49
1689046842.8746102,44
1689046842.924605,40
1689046842.97461,35
1689046843.0246103,33
1689046843.0746098,33
1689046843.1246095,32
1689046843.163609,31
1689046843.2076173,28
1689046843.2576091,26
1689046843.3076043,38
1689046843.3576064,54
1689046843.407605,56
1689046843.4576094,49
1689046843.507609,43
1689046843.5576096,39
1689046843.6076043,35
1689046843.6576085,35
1689046843.7076044,35
1689046843.7576084,30
1689046843.8076084,23
1689046843.857604,17
1689046843.9076078,14
1689046843.9576082,14
1689046844.007604,15
1689046844.0576077,15
1689046844.107611,14
1689046844.1576037,27
1689046844.1916034,60
1689046844.2416077,68
1689046844.2916028,65
1689046844.3416073,55
1689046844.391607,46
1689046844.4416034,40
1689046844.491607,40
1689046844.541603,40
1689046844.591603,38
1689046844.6416066,30
1689046844.691602,24
1689046844.741607,21
1689046844.7916064,19
1689046844.8416026,19
1689046844.8916016,19
1689046844.9416072,22
1689046844.9916022,43
1689046845.0416064,72
1689046845.091608,78
1689046845.141606,72
1689046845.1746027,64
1689046845.2246013,60
1689046845.274601,56
1689046845.3246021,56
1689046845.376602,56
1689046845.424602,52
1689046845.4746008,48
1689046845.524601,44
1689046845.5746484,42
1689046845.624649,40
1689046845.6746488,40
1689046845.7246482,39
1689046845.7756486,39
1689046845.8256493,46
1689046845.8746526,61
1689046845.9246476,66
1689046845.9746528,62
1689046846.0246542,58
1689046846.0746522,55
1689046846.124648,51
1689046846.1636543,49
1689046846.208652,48
1689046846.2586493,44
1689046846.3086472,40
1689046846.3586483,35
1689046846.4086497,32
1689046846.4586482,30
1689046846.508647,28
1689046846.558652,26
1689046846.6086464,22
1689046846.6586473,15
1689046846.7086473,15
1689046846.758651,41
1689046846.808648,58
1689046846.8586512,55
1689046846.908651,46
1689046846.9586468,40
1689046847.0086508,37
1689046847.0586464,35
1689046847.1086504,35
1689046847.1586504,34
1689046847.1916459,29
1689046847.24159,22
1689046847.2913399,16
1689046847.341341,13
1689046847.3913407,14
1689046847.441341,15
1689046847.491341,16
1689046847.5413418,14
1689046847.59134,19
1689046847.6413443,47
1689046847.6913404,71
1689046847.7421844,69
1689046847.7921846,58
1689046847.841586,48
1689046847.891615,40
1689046847.9422653,40
1689046847.991773,43
1689046848.0420403,40
1689046848.092188,33
1689046848.141831,26
1689046848.1744814,21
1689046848.2244818,20
1689046848.2744863,21
1689046848.3244817,25
1689046848.3754814,29
1689046848.4250724,32
1689046848.477069,48
1689046848.5250676,72
1689046848.5750673,78
1689046848.6250732,72
1689046848.6750722,66
1689046848.7250676,63
1689046848.7750719,60
1689046848.825067,57
1689046848.875067,53
1689046848.9251957,47
1689046848.974741,42
1689046849.0247371,40
1689046849.0750718,38
1689046849.124378,36
1689046849.1633732,35
1689046849.208373,35
1689046849.258985,33
1689046849.309275,31
1689046849.3592706,42
1689046849.4092746,59
1689046849.46027,63
1689046849.5083408,57
1689046849.5592697,51
1689046849.60927,47
1689046849.6592746,42
1689046849.709274,40
1689046849.75927,38
1689046849.8092742,32
1689046849.8592696,23
1689046849.9092696,15
1689046849.9592695,11
1689046850.0092754,9
1689046850.0591419,8
1689046850.1091433,8
1689046850.159139,8
1689046850.1921406,7
1689046850.2414966,12
1689046850.291496,40
1689046850.3414962,69
1689046850.3914962,67
1689046850.4415004,55
1689046850.4915009,43
1689046850.5414999,36
1689046850.5914962,35
1689046850.641495,39
1689046850.6914997,37
1689046850.7414951,29
1689046850.7916167,20
1689046850.841612,13
1689046850.891616,10
1689046850.941617,10
1689046850.9916122,11
1689046851.0416167,12
1689046851.0916119,16
1689046851.1416113,45
1689046851.176612,78
1689046851.2256112,82
1689046851.2756114,75
1689046851.3256104,63
1689046851.375612,53
1689046851.425615,44
1689046851.4756162,46
1689046851.5256112,47
1689046851.5756147,42
1689046851.6256099,35
1689046851.6756108,31
1689046851.7256103,29
1689046851.7756107,28
1689046851.8256156,29
1689046851.8756099,30
1689046851.9266112,40
1689046851.9766698,66
1689046852.0256093,85
1689046852.0756106,82
1689046852.1256142,74
1689046852.1646137,67
1689046852.2116137,63
1689046852.2616158,58
1689046852.3116093,56
1689046852.36161,52
1689046852.4116096,45
1689046852.4616091,40
1689046852.5116088,36
1689046852.5620415,34
1689046852.6118925,34
1689046852.6618927,33
1689046852.7118914,32
1689046852.761462,34
1689046852.8117235,50
1689046852.8610716,65
1689046852.9115472,64
1689046852.9620132,57
1689046853.0120153,52
1689046853.0620146,48
1689046853.1120133,44
1689046853.1620107,43
1689046853.1950085,40
1689046853.245014,37
1689046853.2950673,31
1689046853.3460085,26
1689046853.395009,22
1689046853.4450078,20
1689046853.495014,16
1689046853.5450122,11
1689046853.5950084,7
1689046853.6450078,14
1689046853.6950147,44
1689046853.7450073,66
1689046853.7950137,62
1689046853.8450086,52
1689046853.8950117,43
1689046853.9450119,39
1689046853.995007,38
1689046854.0450077,38
1689046854.0950115,35
1689046854.1450071,28
1689046854.1790078,20
1689046854.2290082,17
1689046854.2790062,15
1689046854.329007,15
1689046854.379011,17
1689046854.429006,17
1689046854.4790068,30
1689046854.5290062,57
1689046854.5790064,71
1689046854.6290107,63
1689046854.679012,53
1689046854.7290063,43
1689046854.77901,39
1689046854.8290052,40
1689046854.879006,40
1689046854.9290073,36
1689046854.9790063,28
1689046855.029019,22
1689046855.0790057,19
1689046855.1290052,20
1689046855.1650057,21
1689046855.212005,21
1689046855.2621017,22
1689046855.3118157,43
1689046855.3618155,71
1689046855.4118161,75
1689046855.4618149,65
1689046855.5118153,56
1689046855.561819,48
1689046855.6118166,44
1689046855.6618207,45
1689046855.7118149,43
1689046855.7618148,37
1689046855.8118167,30
1689046855.8618188,24
1689046855.911815,22
1689046855.9618187,22
1689046856.01182,22
1689046856.0618136,22
1689046856.111815,26
1689046856.1618142,52
1689046856.194819,75
1689046856.2448137,76
1689046856.294819,68
1689046856.3448133,61
1689046856.3948183,54
1689046856.4448137,52
1689046856.494819,53
1689046856.544813,51
1689046856.5948186,45
1689046856.644814,41
1689046856.6948147,40
1689046856.7448196,40
1689046856.7948174,40
1689046856.844813,39
1689046856.9088173,35
1689046856.958817,34
1689046857.008813,43
1689046857.058817,64
1689046857.1088166,68
1689046857.1588166,63
1689046857.1978166,57
1689046857.2458117,54
1689046857.2958827,51
1689046857.3458126,49
1689046857.3958166,47
1689046857.445816,43
1689046857.495816,39
1689046857.545812,36
1689046857.595812,34
1689046857.645811,34
1689046857.695816,33
1689046857.7458112,32
1689046857.795812,30
1689046857.8458164,28
1689046857.8958108,30
1689046857.9458108,46
1689046857.9958103,63
1689046858.0458112,64
1689046858.0958154,58
1689046858.1458127,53
1689046858.1788116,51
1689046858.2288105,48
1689046858.2788198,47
1689046858.3288147,45
1689046858.3788106,41
1689046858.4288166,37
1689046858.47881,33
1689046858.5288105,32
1689046858.578811,31
1689046858.6288095,31
1689046858.6788144,30
1689046858.7286851,29
1689046858.7786815,26
1689046858.8286855,30
1689046858.878681,47
1689046858.9286847,62
1689046858.97868,61
1689046859.0286813,54
1689046859.07868,49
1689046859.1286843,47
1689046859.1646805,45
1689046859.2116804,45
1689046859.2616858,43
1689046859.31168,39
1689046859.3616798,34
1689046859.4116838,30
1689046859.4616811,29
1689046859.5116844,28
1689046859.561684,28
1689046859.6116798,26
1689046859.6616795,24
1689046859.7116787,21
1689046859.76168,30
1689046859.8116834,52
1689046859.8616853,62
1689046859.9116795,55
1689046859.9616797,45
1689046860.0116787,38
1689046860.0616832,33
1689046860.1116781,33
1689046860.1626787,33
1689046860.1956851,30
1689046860.2456834,22
1689046860.295678,15
1689046860.3456786,9
1689046860.3956826,7
1689046860.445678,7
1689046860.4956782,8
1689046860.545685,9
1689046860.596679,8
1689046860.6456819,13
1689046860.6956823,43
1689046860.7456777,72
1689046860.7956781,70
1689046860.8456774,54
1689046860.8956773,40
1689046860.945677,33
1689046860.995677,37
1689046861.0456765,40
1689046861.0959775,37
1689046861.1462102,28
1689046861.1792102,20
1689046861.2292147,16
1689046861.2792096,13
1689046861.3292148,13
1689046861.3792138,14
1689046861.4292142,15
1689046861.4792106,25
1689046861.5292099,59
1689046861.5792098,84
1689046861.6292095,78
1689046861.6792088,63
1689046861.7292094,48
1689046861.779215,41
1689046861.8292089,44
1689046861.8792105,47
1689046861.9292088,42
1689046861.9792092,33
1689046862.0292094,24
1689046862.0792131,18
1689046862.1292088,17
1689046862.1652093,19
1689046862.2132077,21
1689046862.2632084,28
1689046862.3132102,54
1689046862.3632092,75
1689046862.4132123,87
1689046862.4632082,79
1689046862.5132136,69
1689046862.563209,62
1689046862.6132085,60
1689046862.663212,59
1689046862.7132075,55
1689046862.7632077,48
1689046862.813212,41
1689046862.8632076,38
1689046862.9132113,36
1689046862.963207,35
1689046863.0132115,35
1689046863.0632112,34
1689046863.1132073,40
1689046863.163207,59
1689046863.201207,71
1689046863.2492082,69
1689046863.2983944,62
1689046863.348397,57
1689046863.4093924,52
1689046863.4594054,50
1689046863.5094104,49
1689046863.5594044,46
1689046863.6094046,41
1689046863.6594048,38
1689046863.7094085,35
1689046863.7594037,34
1689046863.809408,33
1689046863.8594038,32
1689046863.909408,30
1689046863.9594042,39
1689046864.009405,53
1689046864.0594077,63
1689046864.1094046,60
1689046864.1594036,55
1689046864.1924093,51
1689046864.2424073,49
1689046864.292404,47
1689046864.3424075,46
1689046864.3924031,43
1689046864.4424038,39
1689046864.4924033,35
1689046864.5424023,32
1689046864.5924032,32
1689046864.6424024,32
1689046864.6924024,31
1689046864.742403,30
1689046864.7924027,32
1689046864.8424077,47
1689046864.8924036,61
1689046864.9424062,60
1689046864.9924078,54
1689046865.042402,50
1689046865.092402,47
1689046865.1424057,45
1689046865.1764019,44
1689046865.2264028,42
1689046865.2764037,37
1689046865.3264015,32
1689046865.3774068,27
1689046865.4264054,25
1689046865.4764068,25
1689046865.5264053,25
1689046865.576405,24
1689046865.6264026,20
1689046865.6774013,20
1689046865.7274008,40
1689046865.7764008,58
1689046865.826405,56
1689046865.876402,48
1689046865.9264042,41
1689046865.976405,38
1689046866.026402,38
1689046866.0764043,38
1689046866.1264007,34
1689046866.1654,27
1689046866.2093995,22
1689046866.2594037,19
1689046866.309404,18
1689046866.3593993,19
1689046866.4094048,20
1689046866.4594011,18
1689046866.5094035,20
1689046866.5593996,41
1689046866.6093988,64
1689046866.6594033,64
1689046866.7094007,52
1689046866.7593992,41
1689046866.8094037,36
1689046866.8593988,39
1689046866.9094005,42
1689046866.959398,39
1689046867.0093987,32
1689046867.059399,26
1689046867.1093988,23
1689046867.1594007,22
1689046867.1934,23
1689046867.2434025,23
1689046867.293398,22
1689046867.343398,33
1689046867.3953984,60
1689046867.4454033,74
1689046867.4953978,66
1689046867.5454023,55
1689046867.595402,45
1689046867.6454022,41
1689046867.6954036,43
1689046867.745397,43
1689046867.7954016,38
1689046867.8453975,31
1689046867.8954022,26
1689046867.945397,23
1689046867.9953988,23
1689046868.045397,24
1689046868.095398,23
1689046868.1453967,26
1689046868.1793962,49
1689046868.234397,67
1689046868.284397,74
1689046868.3343964,67
1689046868.393398,60
1689046868.443396,52
1689046868.4933958,48
1689046868.5433967,48
1689046868.5934,46
1689046868.6433957,41
1689046868.6934001,36
1689046868.743396,34
1689046868.7943962,34
1689046868.8433967,35
1689046868.8933997,35
1689046868.9433959,33
1689046868.9934003,38
1689046869.043401,56
1689046869.0933995,69
1689046869.1433954,66
1689046869.1763952,59
1689046869.232399,56
1689046869.282395,52
1689046869.3323991,50
1689046869.3933988,48
1689046869.4433992,45
1689046869.494394,40
1689046869.5433946,35
1689046869.5933986,32
1689046869.6433942,32
1689046869.6933982,33
1689046869.7433944,33
1689046869.793398,32
1689046869.8433952,31
1689046869.893398,43
1689046869.9433937,60
1689046869.993459,63
1689046870.043395,58
1689046870.0933938,53
1689046870.1433935,50
1689046870.176393,47
1689046870.2263925,46
1689046870.2763927,44
1689046870.3263974,40
1689046870.3774226,36
1689046870.4264188,32
1689046870.4764185,31
1689046870.526459,30
1689046870.5764632,30
1689046870.6264586,30
1689046870.6764634,28
1689046870.7264636,28
1689046870.777459,41
1689046870.8264582,59
1689046870.876593,61
1689046870.9268906,55
1689046870.9768908,50
1689046871.0268905,46
1689046871.076891,44
1689046871.1268904,43
1689046871.16589,40
1689046871.2108908,38
1689046871.2608907,33
1689046871.3108907,29
1689046871.36089,27
1689046871.41089,26
1689046871.4608943,27
1689046871.5108895,26
1689046871.560894,24
1689046871.6108947,29
1689046871.6608942,49
1689046871.71089,58
1689046871.7608895,52
1689046871.8108962,43
1689046871.8608937,39
1689046871.9108977,36
1689046871.9608953,36
1689046872.0108893,36
1689046872.0608943,32
1689046872.1108894,27
1689046872.1608932,20
1689046872.1988928,15
1689046872.2468972,15
1689046872.296888,17
1689046872.3463972,18
1689046872.3972754,16
1689046872.4472709,21
1689046872.4972713,46
1689046872.5462718,67
1689046872.5962756,64
1689046872.647271,53
1689046872.697275,42
1689046872.7472699,37
1689046872.7971432,39
1689046872.8471577,40
1689046872.8971572,36
1689046872.9471576,28
1689046872.9971526,21
1689046873.0471575,19
1689046873.0971527,19
1689046873.147157,21
1689046873.1802146,20
1689046873.2301524,19
1689046873.280157,34
1689046873.3301575,63
1689046873.3801572,74
1689046873.4301522,66
1689046873.480152,56
1689046873.5301566,48
1689046873.580157,43
1689046873.6301515,45
1689046873.6801531,44
1689046873.730156,39
1689046873.7801514,32
1689046873.8301558,29
1689046873.8801558,30
1689046873.9301558,34
1689046873.9801557,37
1689046874.0301507,36
1689046874.0801513,42
1689046874.1301506,62
1689046874.1661515,75
1689046874.216163,74
1689046874.266163,68
1689046874.315488,62
1689046874.3767354,57
1689046874.4267395,53
1689046874.476735,51
1689046874.5267355,47
1689046874.5767393,41
1689046874.6267354,38
1689046874.676739,35
1689046874.7267342,34
1689046874.7767348,33
1689046874.8267348,32
1689046874.8767347,30
1689046874.9267347,28
1689046874.978739,37
1689046875.028735,54
1689046875.077738,62
1689046875.127739,57
1689046875.1657393,52
1689046875.2107344,50
1689046875.2607346,46
1689046875.3107383,43
1689046875.3607345,42
1689046875.4107342,39
1689046875.4607337,34
1689046875.5107381,29
1689046875.560734,26
1689046875.6107337,25
1689046875.6607335,24
1689046875.710738,21
1689046875.7607334,17
1689046875.8107333,12
1689046875.8607323,13
1689046875.9107375,40
1689046875.960737,62
1689046876.0107327,61
1689046876.0607326,53
1689046876.1107368,46
1689046876.1607323,40
1689046876.1937332,38
1689046876.243737,39
1689046876.2937317,38
1689046876.343733,33
1689046876.393737,26
1689046876.4437332,21
1689046876.4937322,18
1689046876.543737,18
1689046876.5937326,19
1689046876.6437361,19
1689046876.6937356,18
1689046876.7437313,25
1689046876.7937317,51
1689046876.8437355,68
1689046876.8937318,63
1689046876.9437306,53
1689046876.993731,43
1689046877.0437353,39
1689046877.093731,40
1689046877.1437354,41
1689046877.1777315,37
1689046877.2277308,33
1689046877.2777352,26
1689046877.327735,24
1689046877.3777368,25
1689046877.4277315,29
1689046877.4777303,33
1689046877.5277307,34
1689046877.578735,38
1689046877.62873,55
1689046877.67773,73
1689046877.7277305,74
1689046877.777737,68
1689046877.8277345,63
1689046877.877734,58
1689046877.9277296,55
1689046877.977765,53
1689046878.0278742,49
1689046878.07788,44
1689046878.1278749,40
1689046878.1668792,38
1689046878.213876,37
1689046878.2638745,36
1689046878.313918,35
1689046878.3639185,33
1689046878.4139228,31
1689046878.463919,30
1689046878.5139248,42
1689046878.563923,60
1689046878.6139226,63
1689046878.6639185,57
1689046878.7139225,51
1689046878.7639186,48
1689046878.8139224,44
1689046878.8639183,43
1689046878.9139173,41
1689046878.9639235,36
1689046879.013922,30
1689046879.0639172,24
1689046879.1139169,19
1689046879.163918,15
1689046879.196918,11
1689046879.246994,9
1689046879.29677,7
1689046879.3468513,5
1689046879.3972766,3
1689046879.446382,10
1689046879.4963787,42
1689046879.546377,70
1689046879.5963876,67
1689046879.6463819,54
1689046879.696377,43
1689046879.7469418,37
1689046879.7968526,38
1689046879.846852,40
1689046879.896849,37
1689046879.9468515,29
1689046879.9968476,21
1689046880.046852,17
1689046880.0968473,15
1689046880.1468513,16
1689046880.1808517,17
1689046880.230847,16
1689046880.2808464,15
1689046880.330847,33
1689046880.3818514,68
1689046880.430847,81
1689046880.4808466,72
1689046880.530846,60
1689046880.5808506,50
1689046880.6308467,47
1689046880.6808507,49
1689046880.7308536,50
1689046880.7809048,44
1689046880.8304133,38
1689046880.8944132,36
1689046880.9444172,39
1689046880.994431,41
1689046881.0444252,42
1689046881.0951464,41
1689046881.1453874,42
1689046881.1783829,58
1689046881.228388,69
1689046881.2773829,73
1689046881.3273878,66
1689046881.3773878,60
1689046881.4273875,55
1689046881.477387,52
1689046881.5273829,50
1689046881.577388,47
1689046881.6273844,41
1689046881.677382,36
1689046881.727382,31
1689046881.7775,29
1689046881.8275054,29
1689046881.8775036,28
1689046881.9275043,26
1689046881.9775035,23
1689046882.027499,32
1689046882.079233,54
1689046882.127595,66
1689046882.1665945,60
1689046882.2105913,54
1689046882.26059,48
1689046882.310591,45
1689046882.3607576,42
1689046882.4110897,40
1689046882.4610896,36
1689046882.5110898,29
1689046882.561089,19
1689046882.6110902,12
1689046882.661085,9
1689046882.7110841,10
1689046882.7610843,11
1689046882.8110888,10
1689046882.861089,10
1689046882.9110858,30
1689046882.9610884,66
1689046883.0110838,71
1689046883.061089,61
1689046883.1110902,49
1689046883.1610837,40
1689046883.195084,39
1689046883.2450838,40
1689046883.2950847,41
1689046883.3450842,37
1689046883.395088,29
1689046883.4450877,23
1689046883.4950833,19
1689046883.5450833,19
1689046883.5950887,20
1689046883.6450834,20
1689046883.6950877,29
1689046883.7450836,58
1689046883.795089,77
1689046883.8450832,72
1689046883.8950868,62
1689046883.9452055,54
1689046883.9945314,49
1689046884.043991,50
1689046884.0952625,51
1689046884.1442611,47
1689046884.1772604,41
1689046884.2282653,39
1689046884.2782605,37
1689046884.3272605,38
1689046884.3772607,40
1689046884.4272645,40
1689046884.4782605,40
1689046884.5272627,49
1689046884.5782607,64
1689046884.6282606,69
1689046884.6782596,64
1689046884.7282596,60
1689046884.7782602,57
1689046884.827261,54
1689046884.8772597,51
1689046884.9272645,48
1689046884.9772599,44
1689046885.0272603,40
1689046885.07826,35
1689046885.1282635,32
1689046885.1672635,31
1689046885.212259,30
1689046885.261259,29
1689046885.312259,26
1689046885.3622596,24
1689046885.4122632,37
1689046885.4622607,53
1689046885.5122583,60
1689046885.5622625,52
1689046885.6122582,45
1689046885.662264,40
1689046885.7122588,37
1689046885.7622628,36
1689046885.8112624,35
1689046885.8621843,30
1689046885.9121866,23
1689046885.9621887,17
1689046886.0121846,15
1689046886.0621886,14
1689046886.1121848,15
1689046886.1621912,16
1689046886.2001977,15
1689046886.2481833,19
1689046886.298188,44
1689046886.348184,67
1689046886.3981838,65
1689046886.4481838,54
1689046886.4981842,44
1689046886.5481877,38
1689046886.5981877,39
1689046886.6477447,41
1689046886.6977408,39
1689046886.7477453,32
1689046886.797745,25
1689046886.847745,21
1689046886.8977447,20
1689046886.947741,22
1689046886.9977403,22
1689046887.0477414,22
1689046887.0977395,29
1689046887.14774,55
1689046887.18074,76
1689046887.230745,75
1689046887.2807398,67
1689046887.330744,60
1689046887.3807456,55
1689046887.4307396,53
1689046887.4807396,53
1689046887.5307393,49
1689046887.5807395,43
1689046887.6307435,39
1689046887.6807444,37
1689046887.7307403,38
1689046887.780739,39
1689046887.8307388,39
1689046887.8827438,37
1689046887.9307394,36
1689046887.9807389,48
1689046888.0308132,63
1689046888.080832,63
1689046888.130832,56
1689046888.1668317,51
1689046888.214827,49
1689046888.2648268,47
1689046888.314827,45
1689046888.3648324,43
1689046888.4148273,39
1689046888.4648268,33
1689046888.514827,29
1689046888.5648308,27
1689046888.6148312,26
1689046888.6648307,24
1689046888.7158263,20
1689046888.7648315,14
1689046888.8148265,9
1689046888.8651876,28
1689046888.9152393,56
1689046888.9647007,61
1689046889.0142496,52
1689046889.0652432,43
1689046889.115248,38
1689046889.165248,36
1689046889.198243,38
1689046889.2482426,38
1689046889.2972434,33
1689046889.3482425,26
1689046889.3982475,20
1689046889.448243,17
1689046889.498247,17
1689046889.5472434,18
1689046889.5982435,18
1689046889.648242,18
1689046889.6972466,33
1689046889.7482421,62
1689046889.7982419,72
1689046889.8482425,62
1689046889.898246,51
1689046889.948243,42
1689046889.9982412,40
1689046890.0472412,42
1689046890.097242,42
1689046890.148241,38
1689046890.181246,33
1689046890.2372472,32
1689046890.286842,36
1689046890.336842,40
1689046890.3948417,41
1689046890.444846,40
1689046890.494846,50
1689046890.5448425,68
1689046890.5948422,73
1689046890.6448455,67
1689046890.6948411,61
1689046890.7448406,56
1689046890.7948415,53
1689046890.8448455,51
1689046890.8948412,47
1689046890.9448407,42
1689046890.994847,39
1689046891.0449047,36
1689046891.0948408,35
1689046891.1448407,34
1689046891.1788409,32
1689046891.2288406,31
1689046891.2794592,29
1689046891.3294551,40
1689046891.378455,57
1689046891.428455,61
1689046891.478459,53
1689046891.5284538,46
1689046891.5784588,40
1689046891.628455,36
1689046891.6784549,37
1689046891.7284546,36
1689046891.7785175,30
1689046891.8284595,22
1689046891.8784583,16
1689046891.928454,13
1689046891.9784582,14
1689046892.028454,15
1689046892.0784585,16
1689046892.128454,16
1689046892.167454,35
1689046892.2114577,53
1689046892.2614574,67
1689046892.3114576,59
1689046892.3614533,48
1689046892.4114587,39
1689046892.4614532,36
1689046892.5114574,40
1689046892.561453,40
1689046892.6114523,34
1689046892.6614528,27
1689046892.7114527,22
1689046892.7621746,20
1689046892.812263,21
1689046892.8617828,22
1689046892.9117818,23
1689046892.961777,38
1689046893.0117772,66
1689046893.061778,73
1689046893.1117766,66
1689046893.161778,59
1689046893.195777,52
1689046893.2457764,48
1689046893.2957776,47
1689046893.345776,47
1689046893.395781,43
1689046893.4457808,36
1689046893.495776,31
1689046893.5457764,28
1689046893.5957766,28
1689046893.6457806,28
1689046893.695782,26
1689046893.7457805,30
1689046893.7957764,48
1689046893.8457754,64
1689046893.89579,62
1689046893.9456446,55
1689046893.9956453,50
1689046894.0456405,45
1689046894.0956404,43
1689046894.1456401,44
1689046894.1786401,42
1689046894.22864,40
1689046894.27864,37
1689046894.3287015,35
1689046894.378644,35
1689046894.4286404,34
1689046894.4786444,33
1689046894.5296397,38
1689046894.5796435,53
1689046894.6286433,62
1689046894.6786435,59
1689046894.7286434,55
1689046894.7786431,51
1689046894.828639,47
1689046894.8786383,46
1689046894.9286432,45
1689046894.978639,42
1689046895.0286386,40
1689046895.0786428,37
1689046895.128639,35
1689046895.1676388,35
1689046895.2146428,35
1689046895.2646425,34
1689046895.3146424,38
1689046895.3646424,49
1689046895.4146426,56
1689046895.4646385,67
1689046895.5146422,59
1689046895.564638,54
1689046895.6146383,48
1689046895.6646378,46
1689046895.714637,44
1689046895.764638,40
1689046895.8146417,33
1689046895.8796413,28
1689046895.9286373,26
1689046895.978642,25
1689046896.0286376,25
1689046896.0786412,24
1689046896.1286414,21
1689046896.167639,28
1689046896.2176406,48
1689046896.2676368,69
1689046896.3176417,66
1689046896.3676364,57
1689046896.4176404,52
1689046896.467637,47
1689046896.5176404,42
1689046896.5676415,41
1689046896.6176405,37
1689046896.6676362,29
1689046896.71764,20
1689046896.7676363,12
1689046896.817635,7
1689046896.8676357,4
1689046896.9176397,3
1689046896.9676354,0
1689046897.0176349,0
1689046897.067466,0
1689046897.118186,0
1689046897.1675453,15
1689046897.2175446,64
1689046897.2675438,70
1689046897.3175447,57
1689046897.378546,42
1689046897.4255443,32
1689046897.4755495,31
1689046897.5257995,35
1689046897.5760646,34
1689046897.626066,24
1689046897.6760604,13
1689046897.7260644,4
1689046897.7760594,1
1689046897.826064,2
1689046897.8760638,2
1689046897.9260635,0
1689046897.9770596,6
1689046898.0270646,49
1689046898.0770595,79
1689046898.1270633,73
1689046898.168067,58
1689046898.2100585,47
1689046898.2600598,35
1689046898.310062,32
1689046898.3600645,36
1689046898.413063,33
1689046898.4630628,23
1689046898.513059,10
1689046898.5630627,3
1689046898.6130629,1
1689046898.6630585,3
1689046898.7130582,4
1689046898.7630584,19
1689046898.8130596,60
1689046898.8630626,89
1689046898.913062,83
1689046898.9630575,69
1689046899.013062,54
1689046899.0630693,42
1689046899.1130624,40
1689046899.1630569,41
1689046899.2040627,36
1689046899.2520573,25
1689046899.3020618,14
1689046899.3520567,8
1689046899.413057,7
1689046899.463132,6
1689046899.513057,7
1689046899.563061,45
1689046899.6130564,84
1689046899.663061,86
1689046899.713057,75
1689046899.763061,60
1689046899.8130562,45
1689046899.8630567,39
1689046899.9130566,42
1689046899.963056,40
1689046900.0130563,32
1689046900.0630605,20
1689046900.1130552,13
1689046900.1630602,11
1689046900.2011182,12
1689046900.24906,13
1689046900.2990596,21
1689046900.3490555,59
1689046900.3990598,96
1689046900.4490554,96
1689046900.4990592,61
1689046900.5486407,54
1689046900.5989742,49
1689046900.6489744,48
1689046900.6989782,48
1689046900.7489743,44
1689046900.79898,40
1689046900.8489783,35
1689046900.8989782,33
1689046900.948978,32
1689046900.998978,33
1689046901.048978,34
1689046901.098973,44
1689046901.1492252,62
1689046901.1822839,68
1689046901.2372882,63
1689046901.2882838,55
1689046901.338283,48
1689046901.3962839,47
1689046901.4452837,50
1689046901.4952884,48
1689046901.5452833,43
1689046901.5952828,37
1689046901.6452875,32
1689046901.695284,30
1689046901.7452831,30
1689046901.7952828,30
1689046901.8452868,29
1689046901.8952866,29
1689046901.9452896,45
1689046901.9952865,63
1689046902.0452828,62
1689046902.095288,53
1689046902.1457038,44
1689046902.1795564,41
1689046902.2296162,42
1689046902.279612,45
1689046902.3296163,43
1689046902.3806121,38
1689046902.4296167,33
1689046902.4796119,28
1689046902.529617,25
1689046902.5796127,24
1689046902.6296117,25
1689046902.6796114,26
1689046902.7296154,25
1689046902.780616,38
1689046902.829615,57
1689046902.8796155,61
1689046902.9296105,53
1689046902.9796102,44
1689046903.0298223,40
1689046903.0799174,40
1689046903.1299105,42
1689046903.1689057,41
1689046903.2129066,39
1689046903.2629101,33
1689046903.3129058,28
1689046903.3629062,26
1689046903.4129097,25
1689046903.4629054,26
1689046903.5129106,26
1689046903.5629096,25
1689046903.6129098,25
1689046903.6629047,40
1689046903.712906,57
1689046903.762905,58
1689046903.8129094,49
1689046903.8629062,40
1689046903.9129045,37
1689046903.962909,38
1689046904.0129097,40
1689046904.0629041,40
1689046904.1129093,35
1689046904.1629045,29
1689046904.1959105,26
1689046904.2469084,25
1689046904.2969086,24
1689046904.3469043,24
1689046904.3969085,24
1689046904.4469082,23
1689046904.4969041,24
1689046904.5469084,41
1689046904.5969036,59
1689046904.6469035,57
1689046904.6969078,45
1689046904.746904,34
1689046904.796903,29
1689046904.8469074,34
1689046904.8969033,39
1689046904.9469073,36
1689046904.9969072,30
1689046905.0469043,22
1689046905.096907,18
1689046905.1469026,16
1689046905.180029,17
1689046905.2299433,19
1689046905.2799432,20
1689046905.3300264,21
1689046905.3796132,38
1689046905.4296134,60
1689046905.479609,63
1689046905.5296133,52
1689046905.5796092,40
1689046905.6296084,33
1689046905.6796086,36
1689046905.7296076,41
1689046905.780172,41
1689046905.8301716,35
1689046905.8801672,27
1689046905.930168,20
1689046905.9801679,19
1689046906.0301673,20
1689046906.0801675,21
1689046906.131172,30
1689046906.169171,51
1689046906.2131712,63
1689046906.2631679,61
1689046906.313167,52
1689046906.3631668,42
1689046906.4131663,35
1689046906.4627016,36
1689046906.5126631,38
1689046906.5626643,37
1689046906.6126661,32
1689046906.6626666,28
1689046906.712683,25
1689046906.7626617,25
1689046906.8126628,26
1689046906.8626852,31
1689046906.912689,51
1689046906.9626846,63
1689046907.0136886,60
1689046907.0626888,54
1689046907.1126888,48
1689046907.1626842,44
1689046907.2016842,45
1689046907.2496884,46
1689046907.2996893,45
1689046907.3496883,42
1689046907.3996856,40
1689046907.4496841,38
1689046907.4996836,38
1689046907.549688,39
1689046907.599684,42
1689046907.6496878,54
1689046907.6996891,63
1689046907.749688,61
1689046907.7996879,56
1689046907.849683,52
1689046907.8996835,50
1689046907.9496875,50
1689046907.9996831,50
1689046908.0496824,47
1689046908.0996888,45
1689046908.1496837,43
1689046908.1826825,42
1689046908.2376869,41
1689046908.2876868,41
1689046908.3376832,42
1689046908.3966825,50
1689046908.4466872,63
1689046908.4966824,62
1689046908.5466821,59
1689046908.5966814,57
1689046908.6466863,54
1689046908.696682,53
1689046908.746686,52
1689046908.796682,49
1689046908.846686,46
1689046908.896683,44
1689046908.9466858,42
1689046908.996686,40
1689046909.0466857,40
1689046909.0966814,40
1689046909.1466806,39
1689046909.1796815,44
1689046909.2304833,52
1689046909.2800772,60
1689046909.3300748,58
1689046909.381077,69
1689046909.4300787,64
1689046909.4800727,59
1689046909.5300772,56
1689046909.5800726,53
1689046909.6300726,47
1689046909.6800776,41
1689046909.7300725,38
1689046909.7793484,35
1689046909.829839,31
1689046909.8797202,28
1689046909.929968,25
1689046909.9799676,22
1689046910.0299685,18
1689046910.080972,15
1689046910.131968,29
1689046910.1689677,54
1689046910.213967,62
1689046910.2639673,53
1689046910.3139675,40
1689046910.363968,33
1689046910.413967,32
1689046910.4639666,34
1689046910.513967,32
1689046910.5639684,25
1689046910.6139677,16
1689046910.6639678,10
1689046910.7139711,8
1689046910.763967,9
1689046910.8132384,10
1689046910.8637679,10
1689046910.9137683,8
1689046910.9637673,3
1689046911.013817,8
1689046911.0638123,48
1689046911.1138165,71
1689046911.163812,65
1689046911.1968124,49
1689046911.2468119,40
1689046911.2968116,33
1689046911.3468122,35
1689046911.3968117,40
1689046911.4468112,36
1689046911.496745,28
1689046911.5464776,20
1689046911.5964735,17
1689046911.6464732,17
1689046911.696473,18
1689046911.7464733,17
1689046911.796472,15
1689046911.846473,26
1689046911.896473,60
1689046911.9464767,84
1689046911.9964733,80
1689046912.0464725,69
1689046912.0964723,58
1689046912.1464722,50
1689046912.1794722,48
1689046912.2294714,48
1689046912.279472,45
1689046912.3294716,39
1689046912.3794718,33
1689046912.430476,29
1689046912.4794724,28
1689046912.5294762,29
1689046912.579471,28
1689046912.6304755,27
1689046912.6814713,45
1689046912.7314708,75
1689046912.7804713,85
1689046912.8304718,79
1689046912.8934739,71
1689046912.9434693,61
1689046912.9934688,55
1689046913.0434687,53
1689046913.093469,51
1689046913.1434689,44
1689046913.177469,37
1689046913.227469,31
1689046913.277469,28
1689046913.3274736,26
1689046913.3805847,26
1689046913.431188,26
1689046913.4812782,39
1689046913.5312905,67
1689046913.5802896,82
1689046913.63029,75
1689046913.6802902,67
1689046913.7302902,61
1689046913.78029,55
1689046913.8302896,52
1689046913.8802898,50
1689046913.9302895,46
1689046913.9802897,39
1689046914.0302894,34
1689046914.0802894,30
1689046914.1302896,29
1689046914.168289,28
1689046914.213289,27
1689046914.2632897,24
1689046914.313289,25
1689046914.363289,52
1689046914.413288,68
1689046914.4632885,79
1689046914.5132887,70
1689046914.5632892,64
1689046914.6132882,59
1689046914.6632884,54
1689046914.7132878,51
1689046914.7632883,47
1689046914.8132885,40
1689046914.8772876,34
1689046914.9272878,28
1689046914.977288,26
1689046915.0272877,25
1689046915.0772874,23
1689046915.1272876,20
1689046915.169288,17
1689046915.2102876,15
1689046915.2602873,13
1689046915.3102877,22
1689046915.3602872,55
1689046915.413287,81
1689046915.463287,77
1689046915.5132868,64
1689046915.5632868,56
1689046915.613287,51
1689046915.663286,48
1689046915.7132866,45
1689046915.7632866,40
1689046915.8132222,31
1689046915.8919482,22
1689046915.941951,15
1689046915.9919493,12
1689046916.041955,8
1689046916.0919504,1
1689046916.14195,0
1689046916.17495,0
1689046916.2249498,0
1689046916.2749493,0
1689046916.3244681,40
1689046916.38047,81
1689046916.430474,78
1689046916.4804697,58
1689046916.530469,40
1689046916.5805244,32
1689046916.6305282,35
1689046916.6805923,39
1689046916.7308795,33
1689046916.7810135,19
1689046916.8311536,5
1689046916.8811522,0
1689046916.931153,0
1689046916.9811525,0
1689046917.031158,0
1689046917.0811555,0
1689046917.1311524,0
1689046917.1701565,22
1689046917.2201562,62
1689046917.2701569,105
1689046917.3201566,96
1689046917.3801563,57
1689046917.4291525,45
1689046917.479156,40
1689046917.529151,41
1689046917.5791512,43
1689046917.6291516,40
1689046917.6791515,33
1689046917.7291515,24
1689046917.7791512,19
1689046917.8291557,16
1689046917.8791623,16
1689046917.929157,17
1689046917.9811506,18
1689046918.0311549,43
1689046918.081151,72
1689046918.131152,76
1689046918.170151,67
1689046918.214155,60
1689046918.2641547,52
1689046918.3141503,46
1689046918.3641496,46
1689046918.4141545,46
1689046918.46415,41
1689046918.5141494,34
1689046918.5641541,27
1689046918.614154,22
1689046918.6641495,21
1689046918.71415,21
1689046918.7641494,21
1689046918.8141541,29
1689046918.879154,59
1689046918.9281495,76
1689046918.9781535,70
1689046919.0281496,61
1689046919.0781534,54
1689046919.1281483,50
1689046919.1701534,49
1689046919.2121487,50
1689046919.262149,47
1689046919.3121479,40
1689046919.3621483,34
1689046919.414153,29
1689046919.4641526,27
1689046919.5141487,28
1689046919.5635908,28
1689046919.6138873,30
1689046919.6637294,52
1689046919.7137327,70
1689046919.7637327,72
1689046919.813728,65
1689046919.8787322,57
1689046919.928732,51
1689046919.9787273,49
1689046920.0297282,48
1689046920.0787323,44
1689046920.128728,39
1689046920.1697311,33
1689046920.2167275,30
1689046920.2667315,29
1689046920.3167274,29
1689046920.3667276,29
1689046920.416727,29
1689046920.466732,39
1689046920.516731,59
1689046920.566726,69
1689046920.616789,63
1689046920.6662877,55
1689046920.7164607,50
1689046920.7664597,48
1689046920.81646,48
1689046920.881261,47
1689046920.9305353,41
1689046920.9809573,36
1689046921.0310416,31
1689046921.0804803,29
1689046921.1304803,28
1689046921.16948,27
1689046921.2144842,27
1689046921.2644846,26
1689046921.31448,29
1689046921.365029,52
1689046921.4150248,66
1689046921.4650252,63
1689046921.5150292,53
1689046921.5650253,45
1689046921.6150286,41
1689046921.665024,42
1689046921.7150247,43
1689046921.765029,40
1689046921.8150249,32
1689046921.879025,23
1689046921.9280245,15
1689046921.9780285,13
1689046922.028024,12
1689046922.078024,12
1689046922.1280286,11
1689046922.1700237,14
1689046922.220024,31
1689046922.2700236,66
1689046922.3200276,68
1689046922.381028,54
1689046922.4290235,35
1689046922.4790225,25
1689046922.5290234,28
1689046922.5790231,35
1689046922.629023,34
1689046922.6790283,25
1689046922.7290227,14
1689046922.779022,7
1689046922.8290224,2
1689046922.8790267,0
1689046922.9290228,0
1689046922.9790225,0
1689046923.0288117,4
1689046923.0786715,44
1689046923.128595,85
1689046923.1695964,83
1689046923.2115996,71
1689046923.26218,51
1689046923.311744,37
1689046923.3617492,34
1689046923.4147484,39
1689046923.4647436,40
1689046923.5147488,32
1689046923.5647435,23
1689046923.6147482,16
1689046923.664744,11
1689046923.7147434,6
1689046923.7647436,3
1689046923.814748,2
1689046923.8647437,36
1689046923.9147477,89
1689046923.964743,92
1689046924.0147474,59
1689046924.0643318,49
1689046924.114332,42
1689046924.1645763,40
1689046924.197308,41
1689046924.247599,41
1689046924.297594,39
1689046924.3475986,35
1689046924.3975945,30
1689046924.4475946,27
1689046924.4975946,24
1689046924.547594,22
1689046924.597594,23
1689046924.647598,40
1689046924.697595,62
1689046924.7475982,66
1689046924.7975938,59
1689046924.8475978,51
1689046924.897594,45
1689046924.9475932,43
1689046924.9975934,44
1689046925.0475934,43
1689046925.0975935,40
1689046925.1475978,36
1689046925.1815975,32
1689046925.2315974,31
1689046925.2815971,29
1689046925.3315969,28
1689046925.3815928,33
1689046925.432592,50
1689046925.4815967,64
1689046925.5315926,62
1689046925.5815964,56
1689046925.6315925,50
1689046925.6815922,47
1689046925.7315915,46
1689046925.7817433,46
1689046925.8322701,44
1689046925.8813307,40
1689046925.9317431,37
1689046925.9817426,35
1689046926.0317428,34
1689046926.081743,34
1689046926.1317475,35
1689046926.169743,46
1689046926.2147474,57
1689046926.2647426,59
1689046926.3147469,70
1689046926.364742,57
1689046926.414742,48
1689046926.464747,47
1689046926.5147424,51
1689046926.564742,49
1689046926.6147466,41
1689046926.6647465,34
1689046926.714746,27
1689046926.7647421,25
1689046926.814742,25
1689046926.864741,26
1689046926.9147413,32
1689046926.964742,59
1689046927.0147457,73
1689046927.0647416,69
1689046927.1147456,58
1689046927.1647465,47
1689046927.197741,42
1689046927.2477407,44
1689046927.297746,48
1689046927.3477404,45
1689046927.3977454,39
1689046927.447745,31
1689046927.4977403,25
1689046927.5477405,21
1689046927.597745,20
1689046927.64774,19
1689046927.6977448,26
1689046927.7477453,52
1689046927.7977407,72
1689046927.8472188,67
1689046927.89786,53
1689046927.9478645,39
1689046927.9978647,33
1689046928.04786,38
1689046928.0978642,41
1689046928.1478605,37
1689046928.1818602,28
1689046928.2318597,21
1689046928.2818637,14
1689046928.331859,8
1689046928.3818636,6
1689046928.4318635,5
1689046928.4818587,13
1689046928.5338652,46
1689046928.5818636,75
1689046928.6318605,70
1689046928.681859,53
1689046928.7318652,36
1689046928.7818582,26
1689046928.831863,29
1689046928.8818588,34
1689046928.9318626,32
1689046928.9818578,25
1689046929.0318666,16
1689046929.0818584,9
1689046929.1318579,4
1689046929.1708624,1
1689046929.214858,3
1689046929.264862,35
1689046929.3148584,74
1689046929.3648622,78
1689046929.4148571,68
1689046929.464858,45
1689046929.5148575,34
1689046929.5648618,33
1689046929.6148577,36
1689046929.6648614,34
1689046929.714859,26
1689046929.764861,19
1689046929.814862,12
1689046929.8648612,8
1689046929.9148564,13
1689046929.9648612,56
1689046930.0148623,86
1689046930.0648558,87
1689046930.114856,72
1689046930.164571,55
1689046930.1986165,44
1689046930.2486122,42
1689046930.2986116,43
1689046930.348612,40
1689046930.3986156,33
1689046930.4486158,23
1689046930.4986122,16
1689046930.5486155,13
1689046930.598616,19
1689046930.6486115,52
1689046930.6986153,83
1689046930.7486112,79
1689046930.7986157,67
1689046930.8486109,54
1689046930.8986099,48
1689046930.9486146,49
1689046930.9986145,48
1689046931.0486104,43
1689046931.0986097,36
1689046931.1489365,29
1689046931.1817226,25
1689046931.2327263,30
1689046931.2827272,54
1689046931.3317266,75
1689046931.383722,74
1689046931.4314454,65
1689046931.4817202,56
1689046931.5317204,52
1689046931.5817204,53
1689046931.6317239,54
1689046931.6817198,50
1689046931.731724,44
1689046931.781724,40
1689046931.8317237,39
1689046931.8817196,41
1689046931.9327238,53
1689046931.9817197,66
1689046932.0317185,65
1689046932.0817194,57
1689046932.1317184,50
1689046932.1707184,45
1689046932.2147233,44
1689046932.2647243,44
1689046932.3147233,43
1689046932.3647227,40
1689046932.4147184,36
1689046932.4647179,34
1689046932.5147176,32
1689046932.5650096,31
1689046932.6146908,35
1689046932.6646938,57
1689046932.714689,60
1689046932.7646894,55
1689046932.8146894,49
1689046932.8646936,45
1689046932.9146886,43
1689046932.964693,42
1689046933.0146892,41
1689046933.0646935,37
1689046933.1146884,32
1689046933.1646888,28
1689046933.1986928,26
1689046933.2486887,25
1689046933.2986884,24
1689046933.3486876,26
1689046933.4016883,40
1689046933.4516928,55
1689046933.5016937,58
1689046933.5516882,48
1689046933.6016872,41
1689046933.6516926,39
1689046933.7016919,38
1689046933.751687,38
1689046933.8016875,36
1689046933.8516877,31
1689046933.9016874,27
1689046933.951688,24
1689046934.001688,21
1689046934.0516877,20
1689046934.1016867,19
1689046934.1516924,19
1689046934.1846914,34
1689046934.2346911,48
1689046934.284687,61
1689046934.3346908,55
1689046934.384687,44
1689046934.4346862,37
1689046934.4846866,35
1689046934.5346856,37
1689046934.5846865,38
1689046934.6346862,33
1689046934.6846867,26
1689046934.734691,21
1689046934.784686,17
1689046934.8346872,16
1689046934.8846898,15
1689046934.9346864,20
1689046934.984685,43
1689046935.0346901,63
1689046935.0846848,60
1689046935.1346896,49
1689046935.1706858,39
1689046935.2176917,35
1689046935.2676847,35
1689046935.3176856,39
1689046935.3676896,39
1689046935.4176846,35
1689046935.4676893,28
1689046935.5176988,24
1689046935.5676985,23
1689046935.6177032,24
1689046935.6676981,30
1689046935.7177033,50
1689046935.767699,67
1689046935.8176985,64
1689046935.8677025,54
1689046935.9176984,46
1689046935.967698,41
1689046936.0177023,41
1689046936.0677028,42
1689046936.1177022,40
1689046936.1676986,35
1689046936.2016973,30
1689046936.2517025,28
1689046936.3016975,27
1689046936.3516982,28
1689046936.4016976,37
1689046936.4517014,56
1689046936.5016973,66
1689046936.5516975,62
1689046936.601701,54
1689046936.6516976,47
1689046936.701703,43
1689046936.751696,42
1689046936.8017037,42
1689046936.8517013,40
1689046936.901696,35
1689046936.9519732,30
1689046937.0012193,28
1689046937.0512176,26
1689046937.1012356,26
1689046937.1512191,39
1689046937.1842222,60
1689046937.2342184,66
1689046937.2842221,62
1689046937.3342178,54
1689046937.3842225,48
1689046937.4342177,45
1689046937.4842176,44
1689046937.5352175,44
1689046937.5842216,40
1689046937.6342175,36
1689046937.6842167,31
1689046937.7342215,29
1689046937.7849803,29
1689046937.8351085,30
1689046937.885113,35
1689046937.9351091,52
1689046937.9851084,66
1689046938.03511,62
1689046938.0851126,53
1689046938.1351092,47
1689046938.171108,44
1689046938.219108,45
1689046938.268443,46
1689046938.3183978,44
1689046938.3683977,39
1689046938.4183755,34
1689046938.4687295,30
1689046938.5187347,28
1689046938.5687287,27
1689046938.6187289,27
1689046938.6687288,30
1689046938.7187338,47
1689046938.7687333,64
1689046938.8187335,63
1689046938.8687286,52
1689046938.9187334,43
1689046938.9687283,40
1689046939.0187333,41
1689046939.0687282,43
