timestamp,bvp
1689045797.6265273,23
1689045797.676522,38
1689045797.7265224,54
1689045797.7765238,55
1689045797.8265224,47
1689045797.876523,41
1689045797.9270027,40
1689045797.9768248,43
1689045798.0260832,44
1689045798.0760894,40
1689045798.1090827,35
1689045798.1590877,31
1689045798.2100825,29
1689045798.2590837,28
1689045798.3090835,27
1689045798.359083,27
1689045798.4090827,26
1689045798.460083,24
1689045798.5090826,22
1689045798.559082,27
1689045798.6100824,44
1689045798.659083,59
1689045798.7100816,56
1689045798.760086,48
1689045798.809083,42
1689045798.8590813,42
1689045798.9090822,46
1689045798.9590359,46
1689045799.0090864,41
1689045799.0596266,35
1689045799.0926852,31
1689045799.148174,29
1689045799.1984894,28
1689045799.2484932,28
1689045799.30949,27
1689045799.3592362,25
1689045799.4095447,24
1689045799.4595485,34
1689045799.5095482,54
1689045799.5595446,64
1689045799.6095443,57
1689045799.6595433,48
1689045799.709792,44
1689045799.7591045,46
1689045799.8091292,50
1689045799.8591383,48
1689045799.909614,42
1689045799.9595041,37
1689045800.0097167,33
1689045800.0594125,31
1689045800.0934124,31
1689045800.1434126,31
1689045800.1934786,30
1689045800.2439766,28
1689045800.2980657,31
1689045800.3456774,51
1689045800.3957062,66
1689045800.4457054,63
1689045800.4957054,56
1689045800.545706,48
1689045800.5957057,46
1689045800.645268,52
1689045800.6954887,52
1689045800.7454894,46
1689045800.7954888,40
1689045800.8452394,35
1689045800.895718,32
1689045800.945647,31
1689045800.995647,31
1689045801.0456417,30
1689045801.0826435,29
1689045801.129483,35
1689045801.1795497,54
1689045801.229436,68
1689045801.2798991,63
1689045801.3348951,52
1689045801.384894,47
1689045801.4348948,48
1689045801.4848988,52
1689045801.534894,50
1689045801.5848947,43
1689045801.634516,37
1689045801.684165,32
1689045801.7349772,29
1689045801.7850115,28
1689045801.835007,28
1689045801.8850076,27
1689045801.9350066,29
1689045801.9847746,44
1689045802.0341666,65
1689045802.0821607,60
1689045802.1211655,53
1689045802.1710954,44
1689045802.2212958,44
1689045802.2712965,48
1689045802.3263,48
1689045802.3762949,41
1689045802.4270587,35
1689045802.4766371,30
1689045802.5263593,27
1689045802.5763683,27
1689045802.628662,27
1689045802.67635,29
1689045802.7267082,43
1689045802.7762084,64
1689045802.82687,67
1689045802.8763726,58
1689045802.926372,49
1689045802.9763722,47
1689045803.0263772,50
1689045803.0763772,51
1689045803.129378,41
1689045803.1793766,37
1689045803.2293768,32
1689045803.2793777,29
1689045803.3293765,29
1689045803.3793714,28
1689045803.4293718,36
1689045803.4793715,57
1689045803.529377,71
1689045803.5793712,65
1689045803.6293724,56
1689045803.6795604,50
1689045803.7296646,50
1689045803.7797668,53
1689045803.829628,50
1689045803.8790746,42
1689045803.9298012,36
1689045803.9793265,32
1689045804.0297537,31
1689045804.0797727,31
1689045804.1174605,31
1689045804.1684608,39
1689045804.2182708,61
1689045804.268181,73
1689045804.3261793,65
1689045804.3761792,57
1689045804.426175,53
1689045804.476085,53
1689045804.526866,54
1689045804.5768611,48
1689045804.6298609,40
1689045804.6769354,36
1689045804.7267494,34
1689045804.776702,34
1689045804.8266969,33
1689045804.8767734,37
1689045804.9266968,55
1689045804.9766965,72
1689045805.0266967,69
1689045805.076701,61
1689045805.1157615,55
1689045805.162665,52
1689045805.2121384,52
1689045805.262341,50
1689045805.3123293,43
1689045805.3624237,38
1689045805.4125035,33
1689045805.4622858,31
1689045805.5125673,30
1689045805.5624697,28
1689045805.613637,33
1689045805.6640873,51
1689045805.7137337,66
1689045805.7634587,61
1689045805.8137515,53
1689045805.8632567,47
1689045805.9129791,47
1689045805.9632,49
1689045806.0140116,45
1689045806.063766,40
1689045806.0969753,34
1689045806.151054,32
1689045806.2013066,31
1689045806.251306,31
1689045806.3103104,29
1689045806.3604696,34
1689045806.4104764,54
1689045806.4610605,71
1689045806.511061,69
1689045806.560061,63
1689045806.6110647,58
1689045806.6610613,54
1689045806.711061,54
1689045806.7610645,50
1689045806.811071,43
1689045806.8610594,38
1689045806.911068,35
1689045806.9603753,34
1689045807.0104434,32
1689045807.0600424,30
1689045807.0940104,27
1689045807.1494246,25
1689045807.1994245,25
1689045807.2494233,39
1689045807.2994256,66
1689045807.349429,78
1689045807.399423,72
1689045807.4494238,67
1689045807.4994235,63
1689045807.5494242,58
1689045807.599424,55
1689045807.6494226,49
1689045807.6996977,42
1689045807.7492638,36
1689045807.7992635,33
1689045807.8492672,31
1689045807.899265,29
1689045807.9492638,27
1689045807.9992635,24
1689045808.0493696,21
1689045808.0822406,19
1689045808.1327665,19
1689045808.182765,19
1689045808.2327604,19
1689045808.2935686,28
1689045808.3404405,58
1689045808.3918061,73
1689045808.4418023,67
1689045808.4918017,62
1689045808.5418055,59
1689045808.591801,55
1689045808.6418056,53
1689045808.6918058,48
1689045808.7418013,41
1689045808.7918067,35
1689045808.8418024,32
1689045808.8918014,30
1689045808.9418013,28
1689045808.9918,26
1689045809.0418067,24
1689045809.0828009,21
1689045809.1248055,20
1689045809.1748,18
1689045809.2242942,17
1689045809.2746868,17
1689045809.327682,19
1689045809.377686,40
1689045809.4276814,61
1689045809.477682,63
1689045809.5276823,55
1689045809.5776818,50
1689045809.627681,47
1689045809.677682,47
1689045809.7276814,46
1689045809.7776854,41
1689045809.8276813,35
1689045809.8776853,30
1689045809.9276814,28
1689045809.9776802,27
1689045810.0276818,26
1689045810.0776849,24
1689045810.1106818,22
1689045810.1606812,21
1689045810.2106812,19
1689045810.260697,18
1689045810.3106966,17
1689045810.360692,21
1689045810.4106917,40
1689045810.460692,59
1689045810.5106966,58
1689045810.5606928,49
1689045810.6106915,44
1689045810.6606965,43
1689045810.7106912,46
1689045810.7606964,45
1689045810.8106961,40
1689045810.8606915,34
1689045810.910691,29
1689045810.9609792,27
1689045811.0104697,26
1689045811.0604742,25
1689045811.0944734,24
1689045811.1454687,22
1689045811.1944733,20
1689045811.2444735,18
1689045811.2934692,17
1689045811.3444686,25
1689045811.3954732,46
1689045811.4444692,59
1689045811.4944692,54
1689045811.5444694,44
1689045811.5944688,40
1689045811.6444728,40
1689045811.6944685,43
1689045811.7444685,42
1689045811.794469,37
1689045811.8444686,30
1689045811.8944688,27
1689045811.9444685,25
1689045811.9944687,25
1689045812.044472,24
1689045812.082472,23
1689045812.1274688,23
1689045812.1774676,21
1689045812.2275262,19
1689045812.2774682,28
1689045812.327468,49
1689045812.3774674,59
1689045812.4274719,53
1689045812.4774666,44
1689045812.5275254,40
1689045812.578026,41
1689045812.628026,44
1689045812.6775086,43
1689045812.7275677,38
1689045812.7775078,32
1689045812.8275075,28
1689045812.877942,27
1689045812.9273133,27
1689045812.9773097,26
1689045813.0273097,26
1689045813.0773144,24
1689045813.1103086,23
1689045813.1603127,28
1689045813.2103128,46
1689045813.2603087,59
1689045813.3103087,54
1689045813.3603122,44
1689045813.410308,39
1689045813.4603076,39
1689045813.5103073,41
1689045813.560312,41
1689045813.610307,37
1689045813.660307,30
1689045813.7103076,26
1689045813.7603116,24
1689045813.8243077,23
1689045813.8743076,23
1689045813.9243078,22
1689045813.9743075,20
1689045814.0243073,30
1689045814.0743065,50
1689045814.1083071,59
1689045814.1589108,55
1689045814.2088432,45
1689045814.258848,39
1689045814.310848,39
1689045814.360848,43
1689045814.4109025,44
1689045814.460848,40
1689045814.5108433,33
1689045814.5608475,28
1689045814.6108477,26
1689045814.6608422,26
1689045814.7105331,25
1689045814.7606773,25
1689045814.8106723,37
1689045814.8606768,54
1689045814.9106772,57
1689045814.9606726,48
1689045815.0106726,40
1689045815.0606718,39
1689045815.1136768,42
1689045815.1636715,45
1689045815.2132113,40
1689045815.263215,34
1689045815.3132114,29
1689045815.363216,27
1689045815.4132128,27
1689045815.4632113,27
1689045815.5132108,38
1689045815.563215,54
1689045815.6132107,58
1689045815.663215,51
1689045815.7132106,43
1689045815.7632146,40
1689045815.8132153,44
1689045815.8632107,47
1689045815.9132102,43
1689045815.9632525,37
1689045816.0132477,32
1689045816.0632482,30
1689045816.0972521,29
1689045816.1522522,30
1689045816.2022557,41
1689045816.2522724,60
1689045816.311268,65
1689045816.361272,57
1689045816.4112694,52
1689045816.4612722,50
1689045816.5112724,52
1689045816.5612667,53
1689045816.6112735,49
1689045816.6612778,42
1689045816.7112777,36
1689045816.761277,33
1689045816.8112776,32
1689045816.861277,40
1689045816.911273,59
1689045816.9612772,70
1689045817.0112727,66
1689045817.0612738,60
1689045817.0942764,56
1689045817.1502726,54
1689045817.2002761,53
1689045817.2502723,50
1689045817.3112721,44
1689045817.361272,37
1689045817.411272,34
1689045817.461276,32
1689045817.5112758,31
1689045817.561276,29
1689045817.6112728,36
1689045817.6612754,55
1689045817.7112715,68
1689045817.7612755,65
1689045817.8252714,60
1689045817.875275,56
1689045817.9252715,54
1689045817.975275,51
1689045818.025275,47
1689045818.075271,41
1689045818.108271,34
1689045818.158275,31
1689045818.2082746,29
1689045818.2582707,27
1689045818.3112745,26
1689045818.3612747,23
1689045818.4112706,21
1689045818.4612758,20
1689045818.5112703,18
1689045818.56127,18
1689045818.6112695,18
1689045818.6612756,26
1689045818.7112737,50
1689045818.7612698,68
1689045818.8112702,67
1689045818.8612735,63
1689045818.9112694,61
1689045818.9612696,58
1689045819.0112736,55
1689045819.0612745,52
1689045819.0942748,45
1689045819.144273,41
1689045819.1942732,36
1689045819.2442682,33
1689045819.295273,31
1689045819.3442726,29
1689045819.394273,27
1689045819.444273,24
1689045819.4942727,22
1689045819.544273,21
1689045819.5942686,20
1689045819.6442726,19
1689045819.6952684,22
1689045819.7452729,40
1689045819.7942736,61
1689045819.8442724,64
1689045819.8942678,58
1689045819.944273,55
1689045819.9942718,52
1689045820.0442753,51
1689045820.0832677,49
1689045820.1282678,46
1689045820.1782715,40
1689045820.2282667,35
1689045820.2785187,31
1689045820.3286371,29
1689045820.3786333,27
1689045820.4286373,26
1689045820.4786327,24
1689045820.5286329,22
1689045820.578637,20
1689045820.6286342,19
1689045820.6786366,19
1689045820.7286317,19
1689045820.7786329,43
1689045820.8286324,61
1689045820.8786316,62
1689045820.9287736,56
1689045820.9787805,52
1689045821.0287838,50
1689045821.0787838,50
1689045821.1117835,49
1689045821.1617835,46
1689045821.2117798,40
1689045821.2617798,35
1689045821.3117833,32
1689045821.3617792,30
1689045821.4117832,29
1689045821.461784,27
1689045821.511783,25
1689045821.5617795,23
1689045821.6117826,21
1689045821.6617787,20
1689045821.711783,19
1689045821.7617779,28
1689045821.8117826,49
1689045821.8617792,63
1689045821.9117827,58
1689045821.9617782,51
1689045822.0117772,47
1689045822.0617778,47
1689045822.0947776,48
1689045822.1447773,47
1689045822.1947775,42
1689045822.2447836,36
1689045822.2947817,30
1689045822.3447776,27
1689045822.3947775,25
1689045822.4447782,23
1689045822.4947813,22
1689045822.5447817,20
1689045822.594783,18
1689045822.6447814,17
1689045822.6947763,16
1689045822.7467809,20
1689045822.796777,43
1689045822.844776,59
1689045822.8947773,55
1689045822.9447756,46
1689045822.9947808,40
1689045823.0447803,40
1689045823.083776,42
1689045823.1287804,42
1689045823.17878,38
1689045823.2287757,31
1689045823.2787752,26
1689045823.3281913,24
1689045823.378211,22
1689045823.4282117,22
1689045823.4782116,21
1689045823.5282176,19
1689045823.5782154,17
1689045823.628211,14
1689045823.6782155,22
1689045823.7282114,44
1689045823.7782152,53
1689045823.8282123,47
1689045823.878215,37
1689045823.9282148,30
1689045823.9782114,33
1689045824.0282154,40
1689045824.0782146,40
1689045824.1112146,34
1689045824.1612105,30
1689045824.21121,24
1689045824.2612143,22
1689045824.3112147,22
1689045824.3612142,22
1689045824.411214,21
1689045824.4612124,21
1689045824.5112145,35
1689045824.56121,53
1689045824.6112106,58
1689045824.6612139,48
1689045824.7112095,38
1689045824.7612138,35
1689045824.8112087,40
1689045824.8612094,46
1689045824.9112134,43
1689045824.961209,36
1689045825.0112205,29
1689045825.0612097,25
1689045825.0952127,25
1689045825.145213,26
1689045825.19521,27
1689045825.245254,32
1689045825.2992485,53
1689045825.3472521,73
1689045825.3972487,69
1689045825.447248,60
1689045825.4972477,54
1689045825.5473487,50
1689045825.5973485,53
1689045825.647382,56
1689045825.697498,48
1689045825.7474978,40
1689045825.797493,35
1689045825.8474977,32
1689045825.897498,31
1689045825.947493,30
1689045825.997494,34
1689045826.0474994,54
1689045826.0844977,77
1689045826.1314933,80
1689045826.181493,73
1689045826.2314935,66
1689045826.2814968,60
1689045826.3315,57
1689045826.381497,57
1689045826.4314926,55
1689045826.4814985,47
1689045826.5314927,40
1689045826.581493,35
1689045826.631498,33
1689045826.681497,32
1689045826.731492,31
1689045826.781511,38
1689045826.8315094,60
1689045826.8815045,78
1689045826.931509,76
1689045826.9815042,70
1689045827.0320008,64
1689045827.0811493,58
1689045827.114149,55
1689045827.1641443,54
1689045827.2141488,50
1689045827.2641451,43
1689045827.3141494,37
1689045827.3641493,33
1689045827.4141486,31
1689045827.4641435,30
1689045827.5141482,29
1689045827.5641458,29
1689045827.6141484,45
1689045827.6641443,70
1689045827.7141485,77
1689045827.764143,71
1689045827.8141432,66
1689045827.864149,61
1689045827.9141479,56
1689045827.9641447,53
1689045828.0141475,49
1689045828.0641427,42
1689045828.0981476,37
1689045828.1481435,33
1689045828.1981428,31
1689045828.248147,29
1689045828.2982275,27
1689045828.348147,25
1689045828.3981447,23
1689045828.448143,23
1689045828.4981422,40
1689045828.548457,67
1689045828.598496,77
1689045828.6484914,72
1689045828.698493,68
1689045828.7484953,63
1689045828.798493,58
1689045828.848496,55
1689045828.898497,51
1689045828.9484904,44
1689045828.9984949,38
1689045829.0484948,33
1689045829.0844953,31
1689045829.1314907,30
1689045829.1814919,28
1689045829.2314947,26
1689045829.2814908,23
1689045829.3314943,21
1689045829.3814945,20
1689045829.4314945,24
1689045829.4814954,46
1689045829.5314913,71
1689045829.5814893,75
1689045829.6314938,69
1689045829.6814947,65
1689045829.7315524,60
1689045829.7814937,56
1689045829.8314936,54
1689045829.8814938,48
1689045829.9314914,41
1689045829.9814894,36
1689045830.0314934,32
1689045830.0814893,29
1689045830.1144905,28
1689045830.1644886,27
1689045830.2144933,25
1689045830.2644928,22
1689045830.3144941,20
1689045830.364493,18
1689045830.414493,18
1689045830.4644928,18
1689045830.5144882,20
1689045830.5644922,40
1689045830.6144876,69
1689045830.6655035,79
1689045830.7154927,73
1689045830.7654884,68
1689045830.815492,65
1689045830.8654919,62
1689045830.915541,60
1689045830.965545,56
1689045831.0155404,48
1689045831.0655408,41
1689045831.0985405,36
1689045831.1485403,32
1689045831.1985397,28
1689045831.2485406,25
1689045831.2985396,22
1689045831.3485448,19
1689045831.39854,16
1689045831.4485445,14
1689045831.4985445,13
1689045831.5485394,12
1689045831.598539,19
1689045831.6485395,45
1689045831.6986203,71
1689045831.7487986,72
1689045831.7987993,63
1689045831.8487992,57
1689045831.898803,53
1689045831.948799,51
1689045831.998803,50
1689045832.048799,45
1689045832.0848033,37
1689045832.1318026,31
1689045832.181803,25
1689045832.2318027,21
1689045832.281801,19
1689045832.3317978,18
1689045832.3817985,15
1689045832.431802,12
1689045832.4817982,7
1689045832.5317976,3
1689045832.5815687,1
1689045832.6318295,8
1689045832.6818383,38
1689045832.7318294,64
1689045832.7818258,65
1689045832.8318295,53
1689045832.8818245,42
1689045832.93183,38
1689045832.9818249,41
1689045833.0318239,45
1689045833.0818245,40
1689045833.1158242,32
1689045833.165829,27
1689045833.2158244,21
1689045833.2658281,20
1689045833.3158238,21
1689045833.365824,21
1689045833.4158242,19
1689045833.4658287,15
1689045833.515824,20
1689045833.565828,45
1689045833.615824,68
1689045833.6658237,66
1689045833.7158237,53
1689045833.76583,40
1689045833.8158274,38
1689045833.8658273,45
1689045833.9158244,48
1689045833.9658272,42
1689045834.0158231,33
1689045834.0658274,25
1689045834.0988266,21
1689045834.1548228,21
1689045834.204822,21
1689045834.2548237,21
1689045834.3128219,19
1689045834.3628268,24
1689045834.4128218,53
1689045834.462823,78
1689045834.5128267,76
1689045834.5628216,64
1689045834.612826,53
1689045834.6628218,49
1689045834.712827,52
1689045834.762822,54
1689045834.8268256,44
1689045834.8768256,34
1689045834.9268212,27
1689045834.9768252,24
1689045835.0268257,24
1689045835.0768259,24
1689045835.1158206,22
1689045835.1658254,19
1689045835.2158213,24
1689045835.265821,54
1689045835.3158252,82
1689045835.365825,81
1689045835.4158251,70
1689045835.4658248,61
1689045835.51582,56
1689045835.5658245,56
1689045835.6158206,57
1689045835.6658206,51
1689045835.7158203,41
1689045835.7655907,32
1689045835.8157902,27
1689045835.8657558,26
1689045835.9157515,25
1689045835.965756,22
1689045836.0157552,18
1689045836.0657558,18
1689045836.0987513,41
1689045836.154756,64
1689045836.2047553,83
1689045836.2547507,77
1689045836.3123407,67
1689045836.3623447,59
1689045836.4123447,55
1689045836.4623406,55
1689045836.512727,53
1689045836.5622203,44
1689045836.6124415,36
1689045836.6624415,29
1689045836.7124429,27
1689045836.7625403,26
1689045836.8125396,25
1689045836.8625355,22
1689045836.9125395,18
1689045836.9625344,14
1689045837.0125358,30
1689045837.062548,65
1689045837.0965517,83
1689045837.151553,78
1689045837.201547,69
1689045837.2515473,63
1689045837.3125517,57
1689045837.3625782,57
1689045837.4125865,56
1689045837.4625874,50
1689045837.512591,41
1689045837.5627005,35
1689045837.6127276,32
1689045837.6627233,31
1689045837.7127602,30
1689045837.7626116,27
1689045837.812611,24
1689045837.862607,21
1689045837.9126065,34
1689045837.9627013,66
1689045838.0127475,87
1689045838.062751,83
1689045838.0967507,74
1689045838.1519253,70
1689045838.2019713,64
1689045838.2519662,60
1689045838.3129683,58
1689045838.3629708,51
1689045838.4129708,42
1689045838.462966,37
1689045838.5129707,33
1689045838.5629659,32
1689045838.6129706,30
1689045838.6629672,27
1689045838.7129726,24
1689045838.7629673,21
1689045838.8129654,18
1689045838.8629656,17
1689045838.912965,24
1689045838.9629662,53
1689045839.0129652,80
1689045839.0629654,80
1689045839.0969698,70
1689045839.146966,66
1689045839.196965,61
1689045839.246965,56
1689045839.2969654,55
1689045839.3469663,51
1689045839.3969646,42
1689045839.4469655,34
1689045839.496966,28
1689045839.546969,24
1689045839.5969648,23
1689045839.6469655,22
1689045839.6967556,19
1689045839.7467597,16
1689045839.7967558,13
1689045839.84676,11
1689045839.8967547,10
1689045839.9477596,17
1689045839.9987547,46
1689045840.0473213,78
1689045840.0858243,81
1689045840.1291952,74
1689045840.179438,65
1689045840.2294421,59
1689045840.279442,55
1689045840.3294442,54
1689045840.379442,51
1689045840.4294374,43
1689045840.4794414,35
1689045840.529442,28
1689045840.5794365,24
1689045840.6294413,22
1689045840.6794415,21
1689045840.729441,19
1689045840.7794409,16
1689045840.8294373,13
1689045840.879436,11
1689045840.9295077,17
1689045840.9797978,47
1689045841.0298014,77
1689045841.079803,78
1689045841.113802,66
1689045841.1637971,60
1689045841.2138011,53
1689045841.2637975,51
1689045841.3137972,52
1689045841.363801,49
1689045841.413801,40
1689045841.463801,32
1689045841.5138006,25
1689045841.5637968,23
1689045841.6138008,22
1689045841.6637962,21
1689045841.7137964,20
1689045841.763802,16
1689045841.8138018,13
1689045841.8637962,16
1689045841.9137955,43
1689045841.9637961,75
1689045842.0138001,79
1689045842.063796,66
1689045842.0968,55
1689045842.1528003,49
1689045842.2027955,48
1689045842.252795,50
1689045842.313795,46
1689045842.363795,34
1689045842.4138005,23
1689045842.4637992,15
1689045842.5137994,11
1689045842.5637941,11
1689045842.613799,10
1689045842.6637943,8
1689045842.7134504,4
1689045842.7639146,0
1689045842.813914,10
1689045842.8639183,48
1689045842.9139135,73
1689045842.963918,66
1689045843.0139601,48
1689045843.0630205,34
1689045843.0970094,33
1689045843.1520858,41
1689045843.2020867,46
1689045843.252087,39
1689045843.314085,27
1689045843.3630896,17
1689045843.4130864,14
1689045843.4630868,16
1689045843.51309,18
1689045843.5630918,17
1689045843.6130862,24
1689045843.6630895,52
1689045843.7130845,76
1689045843.7630863,71
1689045843.8130858,54
1689045843.8630848,37
1689045843.9130888,37
1689045843.9630842,49
1689045844.0130847,52
1689045844.0630884,43
1689045844.0960886,31
1689045844.1460843,24
1689045844.1960843,19
1689045844.2460845,19
1689045844.2970886,21
1689045844.3460886,19
1689045844.397084,25
1689045844.4460838,56
1689045844.4960833,85
1689045844.546812,82
1689045844.5964947,66
1689045844.6464908,52
1689045844.697498,47
1689045844.7464914,53
1689045844.796494,56
1689045844.8464947,48
1689045844.8964894,36
1689045844.94649,26
1689045844.9964943,22
1689045845.0464942,23
1689045845.0854897,24
1689045845.1304936,23
1689045845.180494,25
1689045845.230494,55
1689045845.28049,84
1689045845.330489,84
1689045845.3804939,74
1689045845.4304965,63
1689045845.4804893,57
1689045845.5304933,56
1689045845.5804892,57
1689045845.6304903,52
1689045845.680493,41
1689045845.73049,32
1689045845.780493,29
1689045845.8304899,27
1689045845.8804924,27
1689045845.9304929,25
1689045845.9804873,23
1689045846.0304937,46
1689045846.080488,78
1689045846.1134925,85
1689045846.1634917,80
1689045846.2134924,71
1689045846.263492,64
1689045846.3134868,59
1689045846.363488,57
1689045846.4134889,55
1689045846.4634914,48
1689045846.5134876,39
1689045846.5634913,32
1689045846.613487,28
1689045846.6634912,27
1689045846.7134912,26
1689045846.7634916,23
1689045846.813489,20
1689045846.8634908,34
1689045846.913487,67
1689045846.9634907,83
1689045847.0134907,77
1689045847.0634875,69
1689045847.0964904,63
1689045847.1464903,58
1689045847.1965494,55
1689045847.2466056,53
1689045847.2966053,47
1689045847.346971,39
1689045847.3960867,31
1689045847.446124,28
1689045847.4961226,26
1689045847.5467215,25
1689045847.5968266,23
1689045847.6462953,19
1689045847.6963131,16
1689045847.7493174,23
1689045847.8106542,47
1689045847.8602052,81
1689045847.910201,74
1689045847.960206,67
1689045848.0102005,61
1689045848.060204,55
1689045848.0951996,53
1689045848.149205,51
1689045848.1992037,44
1689045848.2492042,36
1689045848.2992,30
1689045848.3491995,27
1689045848.3991988,25
1689045848.4492035,24
1689045848.4992318,21
1689045848.5492363,18
1689045848.5992362,15
1689045848.6492364,13
1689045848.6992362,13
1689045848.7492366,32
1689045848.7993057,66
1689045848.849232,81
1689045848.8992317,73
1689045848.9492357,66
1689045848.9992306,61
1689045849.0492358,56
1689045849.0852313,54
1689045849.1332357,53
1689045849.183231,46
1689045849.2332356,38
1689045849.2832308,31
1689045849.3332312,28
1689045849.3832352,26
1689045849.4332302,25
1689045849.4833667,23
1689045849.533694,20
1689045849.58369,16
1689045849.6335835,15
1689045849.6830556,14
1689045849.733717,24
1689045849.7832103,55
1689045849.8335767,80
1689045849.8835773,77
1689045849.9335785,69
1689045849.9835773,64
1689045850.0335727,58
1689045850.0835762,54
1689045850.1165764,51
1689045850.1665761,48
1689045850.2165713,40
1689045850.266576,32
1689045850.3165765,27
1689045850.366576,24
1689045850.416571,23
1689045850.4665716,22
1689045850.5165708,19
1689045850.566571,16
1689045850.6165757,13
1689045850.6665757,11
1689045850.716683,11
1689045850.7665708,19
1689045850.816575,48
1689045850.866571,76
1689045850.9165711,76
1689045850.9665751,66
1689045851.0165749,60
1689045851.066575,55
1689045851.0995753,52
1689045851.1495702,51
1689045851.1995704,47
1689045851.2495744,39
1689045851.2995703,30
1689045851.349574,24
1689045851.3995752,22
1689045851.4495692,21
1689045851.499574,19
1689045851.5505745,17
1689045851.6005743,14
1689045851.6509373,11
1689045851.7000897,9
1689045851.7500935,8
1689045851.8000891,19
1689045851.8500886,49
1689045851.900093,74
1689045851.9500933,72
1689045852.0000896,62
1689045852.0500891,56
1689045852.086093,52
1689045852.1330888,51
1689045852.1830928,50
1689045852.2330928,46
1689045852.283089,37
1689045852.3330877,29
1689045852.3830922,24
1689045852.4330885,22
1689045852.4830933,21
1689045852.5330882,21
1689045852.5830889,19
1689045852.6330922,16
1689045852.6830873,13
1689045852.7330875,12
1689045852.783087,23
1689045852.8330872,54
1689045852.8830929,74
1689045852.9330885,69
1689045852.9830914,58
1689045853.0330865,51
1689045853.0830865,48
1689045853.1160867,50
1689045853.1660872,50
1689045853.216091,44
1689045853.2660863,36
1689045853.3160908,28
1689045853.3660915,24
1689045853.4160876,23
1689045853.4660904,22
1689045853.5160868,21
1689045853.5660863,19
1689045853.616092,16
1689045853.666091,14
1689045853.7160854,29
1689045853.7660854,59
1689045853.8160903,75
1689045853.8660855,66
1689045853.9160898,54
1689045853.9662619,46
1689045854.0162606,46
1689045854.0662563,51
1689045854.100256,48
1689045854.1558528,43
1689045854.2058637,35
1689045854.2558644,28
1689045854.3148592,25
1689045854.3645082,24
1689045854.414591,24
1689045854.46459,23
1689045854.5145886,21
1689045854.5645843,19
1689045854.6145837,35
1689045854.6645885,68
1689045854.7145889,74
1689045854.7645843,63
1689045854.814588,50
1689045854.8645842,44
1689045854.9145882,46
1689045854.9645844,51
1689045855.014588,47
1689045855.0645835,39
1689045855.0975885,31
1689045855.1475878,27
1689045855.1975837,25
1689045855.247583,25
1689045855.2975833,26
1689045855.3475852,25
1689045855.397583,22
1689045855.448587,32
1689045855.4975836,59
1689045855.5475872,74
1689045855.5975845,66
1689045855.6475873,52
1689045855.6979356,44
1689045855.7487483,46
1689045855.7977479,51
1689045855.8469856,49
1689045855.8970323,40
1689045855.9470313,33
1689045855.9970274,28
1689045856.0470262,26
1689045856.0860271,26
1689045856.1300306,26
1689045856.1800268,25
1689045856.230026,23
1689045856.2800305,44
1689045856.3300276,58
1689045856.3800309,72
1689045856.430026,62
1689045856.4800255,50
1689045856.5300303,43
1689045856.580028,46
1689045856.6300304,50
1689045856.6800296,46
1689045856.7300274,37
1689045856.7800295,28
1689045856.8300252,23
1689045856.8800254,22
1689045856.9300294,23
1689045856.9800255,22
1689045857.0300255,28
1689045857.0800252,51
1689045857.1210294,70
1689045857.169025,64
1689045857.2190242,52
1689045857.2690287,44
1689045857.319029,44
1689045857.3700278,50
1689045857.4190285,50
1689045857.469024,41
1689045857.5190287,36
1689045857.5690243,29
1689045857.6191702,25
1689045857.6692467,24
1689045857.7192466,32
1689045857.7692428,54
1689045857.8192418,69
1689045857.8692467,61
1689045857.9192421,47
1689045857.9692466,38
1689045858.019242,38
1689045858.0692465,42
1689045858.1032424,40
1689045858.1532462,35
1689045858.203242,24
1689045858.2532432,16
1689045858.3112428,12
1689045858.3612413,13
1689045858.4112415,28
1689045858.4612453,51
1689045858.5112407,58
1689045858.561241,47
1689045858.6112452,35
1689045858.6612484,29
1689045858.7112522,34
1689045858.7612484,39
1689045858.825252,31
1689045858.8752477,22
1689045858.9252515,16
1689045858.9752514,12
1689045859.0252626,14
1689045859.075267,34
1689045859.108263,56
1689045859.1582677,59
1689045859.2084014,51
1689045859.258818,39
1689045859.3155098,31
1689045859.3639784,34
1689045859.4139943,39
1689045859.4642904,35
1689045859.5144508,27
1689045859.564359,20
1689045859.6145308,18
1689045859.6644163,20
1689045859.714331,35
1689045859.7645774,57
1689045859.8147905,64
1689045859.8649151,57
1689045859.9149148,49
1689045859.9649193,43
1689045860.014915,42
1689045860.0649192,44
1689045860.0979197,40
1689045860.1479144,35
1689045860.1979148,28
1689045860.247946,25
1689045860.2978334,24
1689045860.3478281,24
1689045860.3998332,35
1689045860.4478283,58
1689045860.497828,64
1689045860.5478287,59
1689045860.5978293,53
1689045860.6478293,47
1689045860.6978323,44
1689045860.7478278,44
1689045860.7978873,40
1689045860.8478281,33
1689045860.8978279,28
1689045860.9478278,25
1689045860.9978275,25
1689045861.0478272,25
1689045861.0868273,23
1689045861.131832,30
1689045861.1818328,51
1689045861.231827,66
1689045861.281828,65
1689045861.3318315,61
1689045861.3818321,55
1689045861.4318316,49
1689045861.4818308,47
1689045861.5318317,45
1689045861.5818272,40
1689045861.6318307,34
1689045861.6818268,30
1689045861.7311752,28
1689045861.7811468,27
1689045861.8311467,26
1689045861.8821514,24
1689045861.9311504,22
1689045861.9811466,20
1689045862.03115,24
1689045862.0811508,50
1689045862.1201463,67
1689045862.1701455,66
1689045862.220146,61
1689045862.27015,58
1689045862.3311455,53
1689045862.3811462,52
1689045862.431145,51
1689045862.4811456,45
1689045862.5311456,40
1689045862.58115,35
1689045862.6311512,33
1689045862.6811445,32
1689045862.7315688,30
1689045862.7819345,28
1689045862.8319342,25
1689045862.8819344,23
1689045862.9319348,25
1689045862.9819338,48
1689045863.0319347,67
1689045863.0819473,67
1689045863.113939,63
1689045863.164934,61
1689045863.2149332,57
1689045863.2649333,53
1689045863.3149333,51
1689045863.3649335,47
1689045863.4149334,40
1689045863.464933,35
1689045863.5149343,30
1689045863.5649328,29
1689045863.6149375,27
1689045863.6649375,25
1689045863.7149384,23
1689045863.7649326,20
1689045863.8149326,19
1689045863.8646004,20
1689045863.9148293,38
1689045863.9648337,63
1689045864.0148299,70
1689045864.0645113,66
1689045864.098205,63
1689045864.1487453,61
1689045864.1986747,56
1689045864.2486815,54
1689045864.2996745,51
1689045864.348684,44
1689045864.3986788,38
1689045864.4486754,33
1689045864.4986746,31
1689045864.5486786,29
1689045864.5986738,27
1689045864.6486783,24
1689045864.6986783,21
1689045864.7486742,19
1689045864.7986786,18
1689045864.8486743,18
1689045864.8996737,33
1689045864.9486794,58
1689045864.998678,69
1689045865.0486734,64
1689045865.087686,60
1689045865.1316795,58
1689045865.1816735,54
1689045865.2316732,51
1689045865.2816772,49
1689045865.331678,41
1689045865.3816724,36
1689045865.4315212,30
1689045865.4817317,27
1689045865.531694,26
1689045865.5814154,24
1689045865.631948,22
1689045865.6812384,19
1689045865.731646,17
1689045865.7814255,16
1689045865.8314295,15
1689045865.8814251,22
1689045865.9314294,45
1689045865.9814255,66
1689045866.0314245,66
1689045866.0814245,59
1689045866.1156764,55
1689045866.1653109,53
1689045866.2151709,50
1689045866.2651012,49
1689045866.3150342,44
1689045866.3657868,38
1689045866.4157915,31
1689045866.4657943,26
1689045866.5153744,24
1689045866.5653694,23
1689045866.6153703,21
1689045866.6653738,19
1689045866.7153697,17
1689045866.7652206,14
1689045866.8152251,13
1689045866.865221,15
1689045866.9152215,33
1689045866.9652207,58
1689045867.015317,65
1689045867.0658345,58
1689045867.0988348,53
1689045867.1488395,50
1689045867.1988347,48
1689045867.2488353,49
1689045867.2988338,46
1689045867.3488348,40
1689045867.3986866,33
1689045867.44798,27
1689045867.4979684,24
1689045867.5487885,23
1689045867.5988398,22
1689045867.6489012,19
1689045867.698839,17
1689045867.7488413,15
1689045867.7988398,13
1689045867.8498435,22
1689045867.8998387,47
1689045867.9488392,64
1689045867.9988384,61
1689045868.048843,52
1689045868.0878434,47
1689045868.131839,45
1689045868.1818383,46
1689045868.231208,47
1689045868.28183,41
1689045868.3310614,34
1689045868.3818798,27
1689045868.4316773,24
1689045868.4816775,22
1689045868.5316768,21
1689045868.5816815,20
1689045868.6316812,19
1689045868.6816766,17
1689045868.7316763,15
1689045868.781681,43
1689045868.8316767,65
1689045868.8816807,66
1689045868.931676,56
1689045868.9816759,47
1689045869.0316806,44
1689045869.0816803,47
1689045869.1157362,48
1689045869.1656764,45
1689045869.2156768,38
1689045869.2656758,31
1689045869.3156755,26
1689045869.3656824,24
1689045869.4156816,23
1689045869.465741,23
1689045869.5156803,21
1689045869.5656753,19
1689045869.6156797,26
1689045869.665675,50
1689045869.715675,70
1689045869.7656796,67
1689045869.8156743,56
1689045869.8656745,47
1689045869.9156744,45
1689045869.9656794,50
1689045870.0157092,49
1689045870.0657227,42
1689045870.0987172,34
1689045870.154722,29
1689045870.2047174,26
1689045870.254722,25
1689045870.3157823,25
1689045870.3657174,24
1689045870.4157226,22
1689045870.4657176,28
1689045870.5157192,52
1689045870.565721,73
1689045870.6157165,69
1689045870.665722,57
1689045870.715721,48
1689045870.7657223,47
1689045870.815721,51
1689045870.8657217,51
1689045870.9157178,43
1689045870.965721,35
1689045871.0157166,29
1689045871.0657175,26
1689045871.1187208,25
1689045871.1687162,24
1689045871.2187207,23
1689045871.2687213,25
1689045871.31872,45
1689045871.3687215,68
1689045871.4187157,68
1689045871.4687157,55
1689045871.51872,44
1689045871.5687199,40
1689045871.6187198,45
1689045871.6687202,46
1689045871.7187147,40
1689045871.7687197,31
1689045871.8327193,22
1689045871.882715,20
1689045871.9327197,21
1689045871.9827187,21
1689045872.0327146,22
1689045872.0827632,37
1689045872.121719,60
1689045872.1717145,63
1689045872.2217143,57
1689045872.2717142,44
1689045872.3217182,36
1689045872.3717139,40
1689045872.4217181,47
1689045872.471718,44
1689045872.5217178,37
1689045872.5717137,29
1689045872.621718,26
1689045872.67172,26
1689045872.7217128,26
1689045872.7717133,28
1689045872.821719,46
1689045872.871713,68
1689045872.9217176,69
1689045872.9717126,57
1689045873.021717,45
1689045873.071713,44
1689045873.1047127,51
1689045873.154717,53
1689045873.2047174,48
1689045873.254717,40
1689045873.3157132,32
1689045873.365717,29
1689045873.4157164,29
1689045873.4657164,30
1689045873.515718,42
1689045873.5657163,68
1689045873.6157115,79
1689045873.665712,71
1689045873.7157118,61
1689045873.765716,54
1689045873.8157117,55
1689045873.8657174,57
1689045873.9157114,52
1689045873.9657156,42
1689045874.0157113,35
1689045874.0657153,31
1689045874.0997155,30
1689045874.1497164,30
1689045874.200317,34
1689045874.2504418,55
1689045874.2994375,77
1689045874.3495433,77
1689045874.3995502,68
1689045874.4495447,62
1689045874.4993646,57
1689045874.549015,55
1689045874.599432,53
1689045874.6491477,45
1689045874.6992078,38
1689045874.7491431,32
1689045874.799144,29
1689045874.8491435,28
1689045874.8991475,27
1689045874.9501433,34
1689045874.9996452,53
1689045875.0496786,71
1689045875.0872173,73
1689045875.1327639,67
1689045875.1827593,62
1689045875.23276,56
1689045875.2827637,53
1689045875.3327644,50
1689045875.3827636,44
1689045875.432763,38
1689045875.4827595,31
1689045875.5327628,28
1689045875.5827596,26
1689045875.6327586,24
1689045875.6827595,22
1689045875.7327626,19
1689045875.7827585,20
1689045875.8327627,40
1689045875.8827593,68
1689045875.9327214,70
1689045875.9824715,65
1689045876.0324674,61
1689045876.0828755,55
1689045876.1158667,52
1689045876.1658642,51
1689045876.2158597,47
1689045876.2658646,40
1689045876.31586,34
1689045876.3658655,30
1689045876.4158597,28
1689045876.4658592,27
1689045876.5158591,25
1689045876.565865,22
1689045876.6158633,20
1689045876.6658635,30
1689045876.7158597,55
1689045876.7658634,70
1689045876.8158588,66
1689045876.865863,63
1689045876.9158583,58
1689045876.9658582,52
1689045877.0158584,50
1689045877.0658638,48
1689045877.0998626,42
1689045877.1498582,36
1689045877.199864,31
1689045877.2498584,28
1689045877.3008623,27
1689045877.3498623,25
1689045877.3998632,23
1689045877.449857,20
1689045877.499862,18
1689045877.5498579,24
1689045877.6018617,47
1689045877.6498568,66
1689045877.6998577,66
1689045877.7498617,62
1689045877.7998617,59
1689045877.8498573,53
1689045877.899861,50
1689045877.9498565,48
1689045877.9998617,42
1689045878.0498571,36
1689045878.088857,31
1689045878.1328561,29
1689045878.1828609,27
1689045878.2328606,25
1689045878.2828608,22
1689045878.3328605,20
1689045878.3828564,18
1689045878.4328601,16
1689045878.4828558,24
1689045878.532712,48
1689045878.5827153,66
1689045878.6327167,65
1689045878.682712,61
1689045878.7327166,58
1689045878.7827117,53
1689045878.832716,51
1689045878.882713,48
1689045878.9327114,43
1689045878.9827156,37
1689045879.0327115,32
1689045879.0827112,29
1689045879.1217113,28
1689045879.1687114,27
1689045879.2187114,24
1689045879.2687159,21
1689045879.3187153,19
1689045879.3687162,18
1689045879.4187107,22
1689045879.468715,42
1689045879.5187109,65
1689045879.5687106,69
1689045879.6187146,64
1689045879.668715,63
1689045879.7187147,57
1689045879.76871,53
1689045879.8187282,50
1689045879.8687282,46
1689045879.9187284,40
1689045879.968725,32
1689045880.018728,28
1689045880.0687244,26
1689045880.1027236,24
1689045880.157723,23
1689045880.2077286,20
1689045880.2577226,17
1689045880.3167284,16
1689045880.3667276,15
1689045880.4167275,15
1689045880.4667277,29
1689045880.5167222,56
1689045880.566727,68
1689045880.6167269,63
1689045880.666727,59
1689045880.716723,55
1689045880.7947273,51
1689045880.8447266,48
1689045880.8947232,41
1689045880.9447908,35
1689045880.9947226,30
1689045881.044727,27
1689045881.0887272,26
1689045881.127722,25
1689045881.1777263,23
1689045881.2277217,20
1689045881.2777262,18
1689045881.3327215,16
1689045881.3827257,16
1689045881.4327254,17
1689045881.482721,40
1689045881.5327208,65
1689045881.5827255,69
1689045881.6327205,62
1689045881.6827252,57
1689045881.7327206,54
1689045881.7827308,51
1689045881.83272,50
1689045881.8827248,45
1689045881.9327211,39
1689045881.9827206,32
1689045882.0327203,28
1689045882.0837247,26
1689045882.1217248,25
1689045882.1697204,23
1689045882.2197247,21
1689045882.2698815,18
1689045882.3198814,17
1689045882.3699486,15
1689045882.4199605,24
1689045882.469058,50
1689045882.5190575,68
1689045882.5690637,65
1689045882.6190574,57
1689045882.669062,52
1689045882.7190616,49
1689045882.7690613,49
1689045882.819103,47
1689045882.8691032,40
1689045882.919104,34
1689045882.969098,28
1689045883.0195274,25
1689045883.0693283,24
1689045883.1023307,23
1689045883.158332,22
1689045883.2083323,20
1689045883.2583325,18
1689045883.3135295,16
1689045883.3635883,25
1689045883.4137173,51
1689045883.4637125,70
1689045883.5133805,65
1689045883.563759,55
1689045883.6130297,49
1689045883.6630254,47
1689045883.714029,49
1689045883.7630248,47
1689045883.8270245,38
1689045883.8770292,30
1689045883.9270287,25
1689045883.977024,23
1689045884.0270247,22
1689045884.0770242,21
1689045884.1151824,19
1689045884.1633613,18
1689045884.2133615,15
1689045884.2633653,18
1689045884.3163657,40
1689045884.3663616,64
1689045884.416365,64
1689045884.466366,54
1689045884.5163653,46
1689045884.56636,43
1689045884.616361,46
1689045884.6663606,47
1689045884.71636,40
1689045884.7663603,33
1689045884.8163643,26
1689045884.8663604,23
1689045884.9163604,22
1689045884.96636,22
1689045885.0163639,21
1689045885.0663657,19
1689045885.0993598,18
1689045885.1513636,25
1689045885.2013595,50
1689045885.2493634,67
1689045885.2993596,62
1689045885.3493638,54
1689045885.399363,44
1689045885.4493587,42
1689045885.5013638,46
1689045885.549359,46
1689045885.5993607,39
1689045885.6493587,31
1689045885.699361,26
1689045885.7493637,24
1689045885.7993627,24
1689045885.849358,24
1689045885.8993583,23
1689045885.949358,20
1689045886.0013583,29
1689045886.051361,55
1689045886.0883646,72
1689045886.1334076,70
1689045886.1834142,58
1689045886.2334073,48
1689045886.2834072,45
1689045886.333412,48
1689045886.383407,51
1689045886.4334173,45
1689045886.4834073,37
1689045886.5334117,30
1689045886.5834112,27
1689045886.6334112,26
1689045886.6834066,26
1689045886.733411,26
1689045886.7834845,24
1689045886.8334062,36
1689045886.883407,62
1689045886.9334502,74
1689045886.9834058,66
1689045887.0334108,54
1689045887.0834064,47
1689045887.11641,49
1689045887.1664062,51
1689045887.216406,50
1689045887.266407,41
1689045887.3164053,33
1689045887.3664098,27
1689045887.4164107,24
1689045887.466405,23
1689045887.5164099,22
1689045887.5664048,20
1689045887.6164048,24
1689045887.6664042,46
1689045887.7164052,65
1689045887.7664144,60
1689045887.8164048,47
1689045887.866405,38
1689045887.9164095,37
1689045887.966409,42
1689045888.016409,42
1689045888.066409,34
1689045888.1004229,25
1689045888.1554224,20
1689045888.2054226,19
1689045888.255422,20
1689045888.3165207,20
1689045888.3667374,29
1689045888.4167497,49
1689045888.4667444,59
1689045888.515835,50
1689045888.566027,38
1689045888.6160269,31
1689045888.6660318,38
1689045888.7160282,44
1689045888.7660315,40
1689045888.8160274,32
1689045888.8660314,26
1689045888.9160285,23
1689045888.9660313,23
1689045889.016031,23
1689045889.0660272,32
1689045889.1020274,54
1689045889.1500275,66
1689045889.200027,65
1689045889.250027,53
1689045889.301026,42
1689045889.350031,41
1689045889.4000266,48
1689045889.4500265,49
1689045889.5000315,41
1689045889.5500278,34
1689045889.6000304,29
1689045889.6500304,28
1689045889.7000306,27
1689045889.7520266,31
1689045889.8280253,67
1689045889.8780296,75
1689045889.9280298,65
1689045889.9780254,56
1689045890.0280294,51
1689045890.0780256,52
1689045890.111025,54
1689045890.1610293,51
1689045890.211025,42
1689045890.261025,34
1689045890.3160253,30
1689045890.3660288,29
1689045890.4160295,29
1689045890.466024,35
1689045890.5160239,58
1689045890.566026,75
1689045890.6160235,72
1689045890.6664941,65
1689045890.716668,59
1689045890.7666676,54
1689045890.8166625,54
1689045890.8666673,51
1689045890.9166636,44
1689045890.9666624,37
1689045891.017669,31
1689045891.067662,30
1689045891.1006668,29
1689045891.150664,29
1689045891.2006676,40
1689045891.2506633,63
1689045891.300662,74
1689045891.3506625,69
1689045891.4006617,65
1689045891.4506621,58
1689045891.5006664,53
1689045891.5506613,51
1689045891.600663,48
1689045891.650662,40
1689045891.700667,34
1689045891.7506657,30
1689045891.8006618,28
1689045891.850662,27
1689045891.9006665,24
1689045891.9506614,28
1689045892.0006654,49
1689045892.050661,70
1689045892.089666,71
1689045892.1336672,68
1689045892.1836786,64
1689045892.2336748,57
1689045892.2838066,52
1689045892.3338017,50
1689045892.3839002,46
1689045892.4338927,39
1689045892.4838948,33
1689045892.53391,29
1689045892.5839074,28
1689045892.6360228,26
1689045892.68325,24
1689045892.7333047,20
1689045892.7833543,24
1689045892.8333542,51
1689045892.8833547,69
1689045892.9334497,71
1689045892.9834497,66
1689045893.0334492,62
1689045893.0834496,55
1689045893.122454,51
1689045893.1694496,49
1689045893.219449,44
1689045893.2704532,38
1689045893.320453,32
1689045893.3704512,29
1689045893.4204495,28
1689045893.4704528,26
1689045893.5204487,23
1689045893.5704482,20
1689045893.620516,18
1689045893.6705396,24
1689045893.720543,48
1689045893.770538,70
1689045893.8333597,69
1689045893.8833609,66
1689045893.9333644,61
1689045893.98336,55
1689045894.0333602,53
1689045894.0833614,50
1689045894.1173642,44
1689045894.1673641,40
1689045894.2173643,35
1689045894.26736,32
1689045894.31736,31
1689045894.3673637,30
1689045894.4173589,27
1689045894.4673595,24
1689045894.5173638,22
1689045894.5673637,22
1689045894.617373,40
1689045894.6673589,68
1689045894.717359,78
1689045894.767359,73
1689045894.8173637,69
1689045894.8673632,63
1689045894.9173589,57
1689045894.9673629,54
1689045895.0173633,49
1689045895.0673628,40
1689045895.100359,34
1689045895.150363,30
1689045895.2003586,28
1689045895.2503629,26
1689045895.3003576,24
1689045895.3503628,21
1689045895.4003625,18
1689045895.4503586,16
1689045895.5003572,15
1689045895.5510309,16
1689045895.6014256,34
1689045895.6514251,62
1689045895.7004242,72
1689045895.750424,66
1689045895.8004289,62
1689045895.8504243,57
1689045895.9004242,52
1689045895.9504282,50
1689045896.0004241,45
1689045896.0504282,38
1689045896.0894234,31
1689045896.139423,28
1689045896.1894279,24
1689045896.2394235,23
1689045896.300423,21
1689045896.3484275,17
1689045896.3984249,14
1689045896.4484274,13
1689045896.4984233,12
1689045896.5484278,15
1689045896.598427,37
1689045896.6484225,63
1689045896.6984227,67
1689045896.748427,60
1689045896.8114274,56
1689045896.861422,50
1689045896.9114218,49
1689045896.961427,47
1689045897.0114222,40
1689045897.061422,33
1689045897.0954263,27
1689045897.1454263,24
1689045897.1954222,23
1689045897.2454264,21
1689045897.3004215,20
1689045897.3504264,17
1689045897.4004219,15
1689045897.450422,13
1689045897.500422,13
1689045897.5534282,31
1689045897.6004207,59
1689045897.6504254,69
1689045897.7004209,61
1689045897.7504256,54
1689045897.8004212,49
1689045897.8504252,47
1689045897.900421,48
1689045897.95042,45
1689045898.0004208,40
1689045898.0504272,32
1689045898.0894248,25
1689045898.134425,23
1689045898.18442,22
1689045898.2344205,21
1689045898.284422,20
1689045898.3344202,18
1689045898.3844202,15
1689045898.4344199,16
1689045898.4844198,40
1689045898.53442,67
1689045898.5844238,70
1689045898.6344197,60
1689045898.684424,51
1689045898.7344186,46
1689045898.7984195,47
1689045898.8484187,48
1689045898.8984191,41
1689045898.9484189,33
1689045898.9984193,26
1689045899.0484235,23
1689045899.089418,22
1689045899.131419,22
1689045899.1814182,21
1689045899.2314186,19
1689045899.2814226,17
1689045899.3344238,19
1689045899.3844225,45
1689045899.4344268,68
1689045899.4844224,67
1689045899.534418,55
1689045899.5844173,45
1689045899.6344173,42
1689045899.6844223,46
1689045899.734422,47
1689045899.7844176,41
1689045899.8344176,33
1689045899.8844178,26
1689045899.9344175,23
1689045899.984422,22
1689045900.0344174,22
1689045900.0844169,22
1689045900.117417,19
1689045900.1674223,19
1689045900.2174172,34
1689045900.2674217,60
1689045900.3175762,68
1689045900.36759,58
1689045900.417585,47
1689045900.4676306,42
1689045900.5176365,44
1689045900.5676913,48
1689045900.6176298,43
1689045900.6676257,35
1689045900.7176263,28
1689045900.7676265,24
1689045900.8176298,22
1689045900.8676844,22
1689045900.9176261,22
1689045900.9676292,21
1689045901.0176291,33
1689045901.0676253,55
1689045901.101626,64
1689045901.1566288,55
1689045901.2066288,42
1689045901.2566288,33
1689045901.317631,31
1689045901.3676286,35
1689045901.417629,33
1689045901.4676244,25
1689045901.5176291,17
1689045901.5676255,12
1689045901.6176245,12
1689045901.6676242,14
1689045901.7176251,14
1689045901.7676277,16
1689045901.8176255,34
1689045901.8676236,53
1689045901.9176278,53
1689045901.967623,42
1689045902.017628,33
1689045902.0676274,31
1689045902.1026273,38
1689045902.1516275,40
1689045902.201633,37
1689045902.2516272,30
1689045902.301623,23
1689045902.3516228,19
1689045902.401623,18
1689045902.4526238,20
1689045902.502627,33
1689045902.5526268,53
1689045902.601498,60
1689045902.6515024,51
1689045902.7012982,40
1689045902.7512937,36
1689045902.8012977,40
1689045902.851295,45
1689045902.9012952,40
1689045902.9512973,32
1689045903.0012963,25
1689045903.0512927,23
1689045903.090297,23
1689045903.1342971,28
1689045903.184293,46
1689045903.2342973,66
1689045903.2842937,65
1689045903.334294,56
1689045903.3842967,48
1689045903.4342928,47
1689045903.4842925,53
1689045903.5342965,53
1689045903.5842922,47
1689045903.6342964,40
1689045903.684293,38
1689045903.7342966,40
1689045903.7842965,56
1689045903.8342934,74
1689045903.8842916,74
1689045903.934296,65
1689045903.9842918,57
1689045904.0342965,52
1689045904.0842927,51
1689045904.1182973,49
1689045904.1682954,45
1689045904.2182953,40
1689045904.268291,34
1689045904.3188918,30
1689045904.3689024,29
1689045904.417995,48
1689045904.4679992,67
1689045904.517995,66
1689045904.5680614,59
1689045904.6180568,53
1689045904.6680617,49
1689045904.7180617,48
1689045904.7680612,45
1689045904.8320568,36
1689045904.882057,30
1689045904.932061,26
1689045904.9820576,25
1689045905.0320606,24
1689045905.0820565,22
1689045905.1150625,28
1689045905.1650605,41
1689045905.215056,59
1689045905.2650602,58
1689045905.3180554,51
1689045905.3680599,47
1689045905.418056,44
1689045905.46806,44
1689045905.5180566,41
1689045905.5680604,36
1689045905.6180556,30
1689045905.6680598,26
1689045905.7180595,25
1689045905.76806,24
1689045905.818055,22
1689045905.8680592,20
1689045905.9180555,17
1689045905.9680552,16
1689045906.0180552,15
1689045906.0680592,24
1689045906.1020591,46
1689045906.1510556,56
1689045906.2010589,54
1689045906.2510545,47
1689045906.3020558,44
1689045906.3510547,44
1689045906.4010537,45
1689045906.4510539,42
1689045906.5010588,37
1689045906.551069,32
1689045906.601068,29
1689045906.6510785,28
1689045906.7010727,27
1689045906.7510684,26
1689045906.8010724,25
1689045906.8510725,23
1689045906.9010673,26
1689045906.9520671,42
1689045907.0010722,56
1689045907.0510678,53
1689045907.0900679,46
1689045907.1370726,43
1689045907.1870675,42
1689045907.2370675,44
1689045907.287067,43
1689045907.3377209,38
1689045907.387737,33
1689045907.4377375,30
1689045907.487736,29
1689045907.5378098,28
1689045907.5877368,27
1689045907.6377406,26
1689045907.6877403,24
1689045907.737736,29
1689045907.8027406,46
1689045907.8517363,58
1689045907.9017413,52
1689045907.951737,45
1689045908.0017402,43
1689045908.0517402,45
1689045908.0907414,46
1689045908.1377397,44
1689045908.187748,38
1689045908.2377348,34
1689045908.2877355,31
1689045908.3377354,30
1689045908.3877356,29
1689045908.4377396,28
1689045908.487736,26
1689045908.5377393,25
1689045908.5877345,37
1689045908.6377397,55
1689045908.687735,59
1689045908.7376747,52
1689045908.7876613,46
1689045908.837662,44
1689045908.8876605,46
1689045908.9376621,46
1689045908.9876614,41
1689045909.0376651,37
1689045909.0876608,31
1689045909.121661,27
1689045909.1716614,24
1689045909.221665,23
1689045909.2716649,22
1689045909.3216646,20
1689045909.3716614,23
1689045909.4216604,40
1689045909.4716609,55
1689045909.52166,51
1689045909.5716596,43
1689045909.6216593,38
1689045909.6716642,38
1689045909.7216644,41
1689045909.771664,41
1689045909.82166,36
1689045909.8716636,30
1689045909.9216595,26
1689045909.9716642,24
1689045910.0216594,24
1689045910.0716596,24
1689045910.1046634,28
1689045910.1546595,39
1689045910.2046633,55
1689045910.2546635,55
1689045910.3046627,46
1689045910.354665,39
1689045910.404659,37
1689045910.4546578,41
1689045910.5046628,43
1689045910.5546613,38
1689045910.6046624,31
1689045910.6546588,26
1689045910.7046576,24
1689045910.7546625,25
1689045910.8046584,27
1689045910.8546624,41
1689045910.9046626,61
1689045910.9546623,64
1689045911.004662,54
1689045911.0546577,46
1689045911.0906615,43
1689045911.1386573,46
1689045911.1886752,49
1689045911.2387264,48
1689045911.288722,41
1689045911.3387225,35
1689045911.388722,30
1689045911.4387257,30
1689045911.4887257,30
1689045911.5387216,41
1689045911.5887208,64
1689045911.6380029,74
1689045911.6890032,67
1689045911.738007,60
1689045911.7880027,55
1689045911.8380027,56
1689045911.888007,57
1689045911.9380074,51
1689045911.9880066,42
1689045912.0380025,35
1689045912.0890028,32
1689045912.1210015,31
1689045912.1710064,31
1689045912.2220023,35
1689045912.2710063,57
1689045912.321006,79
1689045912.3710063,77
1689045912.4210064,69
1689045912.4710019,64
1689045912.5210016,58
1689045912.5710015,56
1689045912.6210008,53
1689045912.6710017,45
1689045912.7210007,38
1689045912.7710054,32
1689045912.8350053,28
1689045912.8850052,28
1689045912.9350004,47
1689045912.9850051,70
1689045913.0350008,73
1689045913.0850048,64
1689045913.1180048,56
1689045913.1680062,53
1689045913.2180047,49
1689045913.2680032,49
1689045913.3180044,45
1689045913.368004,37
1689045913.418001,30
1689045913.4679997,25
1689045913.5180042,24
1689045913.5680003,23
1689045913.6180046,21
1689045913.6679995,19
1689045913.7180037,18
1689045913.7680047,18
1689045913.817999,40
1689045913.8680034,70
1689045913.9180038,75
1689045913.9679987,64
1689045914.0182889,55
1689045914.0682845,52
1689045914.1019804,52
1689045914.1518762,52
1689045914.2025414,47
1689045914.252545,39
1689045914.303545,31
1689045914.3525395,27
1689045914.4025397,26
1689045914.452545,25
1689045914.5025444,24
1689045914.552544,22
1689045914.6035397,23
1689045914.6545393,43
1689045914.701967,68
1689045914.7520366,68
1689045914.8020332,56
1689045914.852032,47
1689045914.9020329,45
1689045914.9520366,48
1689045915.002037,47
1689045915.0520318,40
1689045915.0910363,32
1689045915.1350372,28
1689045915.185036,25
1689045915.2350318,24
1689045915.285036,24
1689045915.3350356,22
1689045915.3860319,20
1689045915.435032,24
1689045915.4850316,54
1689045915.5350313,71
1689045915.5850356,66
1689045915.635033,53
1689045915.6850317,44
1689045915.735035,45
1689045915.800035,49
1689045915.8490355,44
1689045915.8990316,35
1689045915.9490354,28
1689045915.9990306,24
1689045916.0490298,23
1689045916.0910778,24
1689045916.1320856,24
1689045916.18209,23
1689045916.2320855,20
1689045916.282182,31
1689045916.335207,67
1689045916.3852296,71
1689045916.4353442,58
1689045916.4853456,46
1689045916.535339,42
1689045916.585339,48
1689045916.6353385,50
1689045916.685344,42
1689045916.7353387,34
1689045916.7853386,27
1689045916.8353431,24
1689045916.885345,23
1689045916.935343,24
1689045916.9853442,23
1689045917.0353384,21
1689045917.0853426,29
1689045917.1193426,56
1689045917.1693425,72
1689045917.219338,72
1689045917.2693424,57
1689045917.3193424,45
1689045917.3693426,44
1689045917.419342,51
1689045917.4693384,51
1689045917.519338,43
1689045917.569342,34
1689045917.6193383,27
1689045917.6693418,25
1689045917.719342,25
1689045917.7693377,25
1689045917.8333373,23
1689045917.8833375,25
1689045917.9333365,47
1689045917.9833374,74
1689045918.0333366,74
1689045918.083336,59
1689045918.123341,47
1689045918.1713438,45
1689045918.221341,51
1689045918.2713408,54
1689045918.321341,46
1689045918.3723404,37
1689045918.4223404,30
1689045918.4723406,27
1689045918.5223355,27
1689045918.5723364,27
1689045918.6223402,27
1689045918.67234,25
1689045918.722336,37
1689045918.772342,66
1689045918.8353398,78
1689045918.8853362,71
1689045918.9353373,56
1689045918.9853396,47
1689045919.0353394,53
1689045919.0853348,56
1689045919.1193354,50
1689045919.1693392,43
1689045919.2193346,35
1689045919.2693357,30
1689045919.319334,29
1689045919.3693342,29
1689045919.4193347,29
1689045919.470334,27
1689045919.5193362,30
1689045919.5693386,53
1689045919.6193345,79
1689045919.6693335,76
1689045919.7188845,61
1689045919.7698853,51
1689045919.8332696,52
1689045919.8832655,56
1689045919.9332693,52
1689045919.9832647,42
1689045920.0333347,34
1689045920.0842645,30
1689045920.1222692,29
1689045920.172269,29
1689045920.2222648,29
1689045920.2722688,27
1689045920.3222694,29
1689045920.372269,51
1689045920.4222689,77
1689045920.4722683,77
1689045920.5222685,63
1689045920.5722682,51
1689045920.6222703,49
1689045920.6722639,53
1689045920.7222636,53
1689045920.772268,44
1689045920.8368247,33
1689045920.88682,29
1689045920.9367218,27
1689045920.9867222,27
1689045921.0367265,28
1689045921.086722,27
1689045921.1197226,29
1689045921.1697261,42
1689045921.2197216,70
1689045921.2697268,76
1689045921.327722,63
1689045921.3777256,50
1689045921.4277215,46
1689045921.4777257,49
1689045921.5277262,48
1689045921.5777256,40
1689045921.627726,29
1689045921.677726,22
1689045921.7277215,19
1689045921.7777207,19
1689045921.8277209,19
1689045921.8777254,19
1689045921.927725,17
1689045921.9797251,37
1689045922.0297203,67
1689045922.0777247,71
1689045922.1117246,57
1689045922.161725,48
1689045922.2117198,41
1689045922.2617207,44
1689045922.3197243,48
1689045922.3697245,41
1689045922.4197247,31
1689045922.4697256,23
1689045922.5197246,21
1689045922.5697207,22
1689045922.61972,22
1689045922.669724,25
1689045922.7197196,46
1689045922.769719,70
1689045922.8197198,69
1689045922.8697233,55
1689045922.9197247,44
1689045922.9697235,44
1689045923.0197334,50
1689045923.069723,49
1689045923.1027231,40
1689045923.1527188,33
1689045923.2027204,26
1689045923.2527227,25
1689045923.303723,26
1689045923.3527226,28
1689045923.4047189,44
1689045923.4547184,70
1689045923.5027227,75
1689045923.552723,64
1689045923.6027174,53
1689045923.6527221,49
1689045923.7027223,53
1689045923.752722,54
1689045923.8027172,45
1689045923.8537173,35
1689045923.903718,29
1689045923.9537177,28
1689045924.0037234,29
1689045924.0537217,33
1689045924.0917218,55
1689045924.1367214,79
1689045924.1867187,85
1689045924.2367215,77
1689045924.2867215,69
1689045924.336717,62
1689045924.3867216,59
1689045924.4367173,57
1689045924.4867208,50
1689045924.5367157,40
1689045924.5867164,33
1689045924.6367164,29
1689045924.6867175,29
1689045924.7367206,28
1689045924.8007207,29
1689045924.8507214,60
1689045924.9007165,82
1689045924.9507325,80
1689045925.0008063,73
1689045925.050812,67
1689045925.0918062,59
1689045925.1338058,56
1689045925.1838067,52
1689045925.2338057,44
1689045925.2838054,36
1689045925.3368056,29
1689045925.386806,26
1689045925.436805,25
1689045925.4868057,24
1689045925.5368114,23
1689045925.5868125,20
1689045925.636805,34
1689045925.6860175,64
1689045925.7360175,75
1689045925.7861068,69
1689045925.8367984,63
1689045925.8867981,57
1689045925.9367936,52
1689045925.9867933,50
1689045926.0367942,45
1689045926.0868542,37
1689045926.119794,30
1689045926.169794,26
1689045926.2197936,24
1689045926.2694733,23
1689045926.3191004,21
1689045926.3695395,19
1689045926.4192214,17
1689045926.4697347,15
1689045926.5199666,21
1689045926.5689616,47
1689045926.6190248,70
1689045926.669025,67
1689045926.7190247,60
1689045926.7690203,55
1689045926.8190243,51
1689045926.8690245,50
1689045926.919084,46
1689045926.9690194,39
1689045927.0193338,31
1689045927.0697906,27
1689045927.1037922,26
1689045927.152908,25
1689045927.2037885,24
1689045927.2537925,21
1689045927.3037925,19
1689045927.353788,16
1689045927.4037926,17
1689045927.4547923,36
1689045927.5037875,61
1689045927.553792,64
1689045927.6037877,56
1689045927.6537879,50
1689045927.7037873,47
1689045927.752788,46
1689045927.803401,45
1689045927.8534102,39
1689045927.9034102,31
1689045927.9534104,26
1689045928.00341,24
1689045928.0534103,23
1689045928.09241,22
1689045928.13641,21
1689045928.1864095,18
1689045928.2364097,17
1689045928.2864141,15
1689045928.33641,26
1689045928.386414,47
1689045928.4364223,65
1689045928.4864233,60
1689045928.536423,51
1689045928.5864215,45
1689045928.6364222,43
1689045928.6864266,45
1689045928.7364223,41
1689045928.8014219,34
1689045928.852422,25
1689045928.9014258,21
1689045928.951426,19
1689045929.0014222,18
1689045929.0514255,16
1689045929.0924218,12
1689045929.1334267,10
1689045929.1834254,7
1689045929.2334213,11
1689045929.2864256,36
1689045929.3364205,58
1689045929.386425,55
1689045929.436421,45
1689045929.4864256,38
1689045929.5364256,36
1689045929.586425,39
1689045929.6384246,38
1689045929.6864247,31
1689045929.7364247,22
1689045929.7874246,17
1689045929.836421,15
1689045929.8864245,15
1689045929.9364212,14
1689045929.9864268,13
1689045930.0364277,11
1689045930.0864205,25
1689045930.1204238,54
1689045930.1704197,59
1689045930.2204206,53
1689045930.2704206,41
1689045930.3204236,33
1689045930.3704233,35
1689045930.4204185,41
1689045930.4704235,40
1689045930.5204198,31
1689045930.5704231,23
1689045930.6204197,17
1689045930.6704195,16
1689045930.720418,17
1689045930.7703214,17
1689045930.8205724,27
1689045930.870581,51
1689045930.9205701,64
1689045930.970575,57
1689045931.0205746,45
1689045931.0705707,39
1689045931.10457,40
1689045931.1535697,44
1689045931.2035744,44
1689045931.2535756,37
1689045931.3035746,26
1689045931.3535695,20
1689045931.4030738,17
1689045931.4529476,17
1689045931.502943,18
1689045931.5539436,26
1689045931.6029444,50
1689045931.6529498,68
1689045931.7029448,64
1689045931.752947,52
1689045931.8199425,44
1689045931.8699422,43
1689045931.919944,46
1689045931.9699469,41
1689045932.0199423,33
1689045932.0699422,25
1689045932.1029432,22
1689045932.1529467,22
1689045932.2029424,22
1689045932.2529464,25
1689045932.302943,42
1689045932.3539422,69
1689045932.4029462,75
1689045932.4529462,66
1689045932.5029473,58
1689045932.5529459,53
1689045932.6029415,50
1689045932.6529462,49
1689045932.7029407,43
1689045932.7529457,35
1689045932.8029459,27
1689045932.8529463,22
1689045932.902946,20
1689045932.9529455,20
1689045933.0029407,19
1689045933.053941,32
1689045933.091941,61
1689045933.1369405,73
1689045933.1869402,70
1689045933.2369447,60
1689045933.2869413,53
1689045933.3369517,49
1689045933.3869445,48
1689045933.4369452,46
1689045933.4869442,42
1689045933.5369396,33
1689045933.5869398,26
1689045933.636944,20
1689045933.6869411,18
1689045933.7369442,18
1689045933.7869437,16
1689045933.8369396,21
1689045933.8869388,51
1689045933.93694,68
1689045933.9869394,65
1689045934.036939,55
1689045934.0869458,47
1689045934.124941,44
1689045934.172939,45
1689045934.2229395,44
1689045934.272943,38
1689045934.322943,29
1689045934.3729398,22
1689045934.4229426,19
1689045934.4739387,17
1689045934.5229428,17
1689045934.5729434,16
1689045934.6229389,15
1689045934.6729388,31
1689045934.722942,58
1689045934.772942,66
1689045934.8229434,55
1689045934.8729475,44
1689045934.922942,40
1689045934.9729419,42
1689045935.022939,44
1689045935.0729418,40
1689045935.1059403,32
1689045935.155938,27
1689045935.2059367,22
1689045935.2559414,21
1689045935.305945,20
1689045935.3559372,20
1689045935.4059412,19
1689045935.4559374,21
1689045935.5059364,41
1689045935.555937,66
1689045935.6059372,66
1689045935.6559408,53
1689045935.7059374,43
1689045935.7559407,40
1689045935.8201587,45
1689045935.8702881,46
1689045935.9203544,39
1689045935.9703498,31
1689045936.020447,25
1689045936.0702345,23
1689045936.1029186,22
1689045936.153324,22
1689045936.2034996,22
1689045936.2554994,22
1689045936.3031917,37
1689045936.354187,63
1689045936.4041913,72
1689045936.4541912,60
1689045936.5041864,47
1689045936.554187,41
1689045936.604191,44
1689045936.6541874,48
1689045936.7041907,44
1689045936.7541919,36
1689045936.8041906,29
1689045936.8541856,24
1689045936.9041855,22
1689045936.954691,22
1689045937.004542,22
1689045937.0555427,22
1689045937.0925422,37
1689045937.1375422,59
1689045937.1875677,71
1689045937.2375724,63
1689045937.287572,47
1689045937.3375678,38
1689045937.3875668,38
1689045937.4375718,43
1689045937.4875677,42
1689045937.537572,35
1689045937.5875673,25
1689045937.637573,19
1689045937.6875713,15
1689045937.737571,15
1689045937.8025668,16
1689045937.8515723,18
1689045937.9015708,40
1689045937.9515667,66
1689045938.0015712,66
1689045938.0515726,51
1689045938.0925665,39
1689045938.1345708,36
1689045938.1845703,40
1689045938.234566,47
1689045938.2845707,43
1689045938.3375661,34
1689045938.3875659,26
1689045938.43757,21
1689045938.4875667,20
1689045938.537565,20
1689045938.587565,29
1689045938.6375651,54
1689045938.6875699,74
1689045938.7375655,68
1689045938.7875695,53
1689045938.837566,42
1689045938.887565,42
1689045938.9375694,50
1689045938.9875703,51
1689045939.0375693,42
1689045939.08757,33
1689045939.1205647,26
1689045939.1705647,24
1689045939.2205687,24
1689045939.2703118,30
1689045939.320784,54
1689045939.370788,79
1689045939.4207885,78
1689045939.4707887,64
1689045939.5207872,54
1689045939.570787,54
1689045939.6207829,62
1689045939.6707869,64
1689045939.7207835,56
1689045939.770782,46
1689045939.8207827,40
1689045939.8707821,38
1689045939.9207866,39
1689045939.9707818,51
1689045940.0237863,81
1689045940.0737867,93
1689045940.1077862,85
1689045940.1577814,78
1689045940.207786,70
1689045940.257786,64
1689045940.3077815,62
1689045940.357786,58
1689045940.4077854,49
1689045940.4577868,40
1689045940.5077858,33
1689045940.5577862,30
1689045940.6077852,29
1689045940.6577852,33
1689045940.7077806,57
1689045940.7577865,83
1689045940.807785,85
1689045940.8577926,76
1689045940.9077802,68
1689045940.9577804,61
1689045941.0077848,58
1689045941.057785,54
1689045941.0937846,46
1689045941.1407804,40
1689045941.190784,33
1689045941.2407796,28
1689045941.2907794,27
1689045941.3407855,26
1689045941.3907802,25
1689045941.440784,39
1689045941.4907799,68
1689045941.5407794,80
1689045941.5908585,73
1689045941.6407838,65
1689045941.6907787,58
1689045941.7407796,54
1689045941.7907834,52
1689045941.840779,46
1689045941.890783,38
1689045941.9407797,30
1689045941.9907835,26
1689045942.0407832,25
1689045942.0907788,24
1689045942.1237795,23
1689045942.1737792,22
1689045942.2237823,23
1689045942.2737784,43
1689045942.3237786,72
1689045942.3737826,76
1689045942.423782,66
1689045942.4737823,57
1689045942.523778,52
1689045942.5737774,51
1689045942.623782,49
1689045942.6737778,40
1689045942.7237778,33
1689045942.7737815,27
1689045942.823777,25
1689045942.8737814,24
1689045942.9237814,23
1689045942.9737773,21
1689045943.0237813,19
1689045943.073782,18
1689045943.107777,31
1689045943.1577814,50
1689045943.2077808,75
1689045943.2577765,72
1689045943.3077812,62
1689045943.3577805,54
1689045943.407776,50
1689045943.4577804,51
1689045943.5077775,48
1689045943.5577803,40
1689045943.60778,33
1689045943.6577816,27
1689045943.7077801,24
1689045943.7577753,23
1689045943.807776,22
1689045943.8577752,20
1689045943.907775,18
1689045943.9577756,16
1689045944.0077796,20
1689045944.0577798,44
1689045944.0937748,70
1689045944.1407795,71
1689045944.19078,61
1689045944.2401261,50
1689045944.289839,44
1689045944.3398395,44
1689045944.3898444,45
1689045944.4408383,39
1689045944.489843,30
1689045944.54084,22
1689045944.589838,18
1689045944.640838,16
1689045944.6898386,16
1689045944.7398381,15
1689045944.7908378,13
1689045944.839838,11
1689045944.8898423,14
1689045944.9408376,44
1689045944.9908392,68
1689045945.0398383,64
1689045945.0908372,51
1689045945.1248372,41
1689045945.1748421,38
1689045945.2238414,40
1689045945.2748377,43
1689045945.3239295,38
1689045945.37393,28
1689045945.4239333,19
1689045945.473954,15
1689045945.523958,15
1689045945.5739584,15
1689045945.6239533,15
1689045945.6739542,12
1689045945.7239575,17
1689045945.7739537,42
1689045945.8239574,64
1689045945.8739536,59
1689045945.9239426,45
1689045945.9740324,35
1689045946.0240324,35
1689045946.0749145,41
1689045946.107135,41
1689045946.157139,37
1689045946.207135,27
1689045946.257139,18
1689045946.3071346,14
1689045946.3571339,14
1689045946.4071383,14
1689045946.4571385,16
1689045946.5071387,38
1689045946.5571342,64
1689045946.607134,67
1689045946.657138,53
1689045946.7071333,41
1689045946.7571385,38
1689045946.807139,43
1689045946.857134,46
1689045946.9071336,40
1689045946.9571373,31
1689045947.0071328,25
1689045947.0571332,23
1689045947.0931375,26
1689045947.1571393,30
1689045947.2071385,42
1689045947.2571368,70
1689045947.3071322,86
1689045947.357137,78
1689045947.4071326,66
1689045947.4571326,57
1689045947.5071316,53
1689045947.5571365,53
1689045947.606907,49
1689045947.656903,40
1689045947.7077637,32
1689045947.757768,26
1689045947.8077638,24
1689045947.8577638,24
1689045947.9077692,23
1689045947.957768,28
1689045948.0076091,54
1689045948.0576086,81
1689045948.0936084,81
1689045948.1436086,74
1689045948.1936035,65
1689045948.2436085,58
1689045948.3056178,54
1689045948.354617,52
1689045948.4046252,45
1689045948.4546347,36
1689045948.5047233,28
1689045948.5547228,24
1689045948.6047187,22
1689045948.6541607,22
1689045948.7047603,21
1689045948.756843,23
1689045948.8068502,46
1689045948.8538501,75
1689045948.9048505,78
1689045948.9558501,68
1689045949.0048501,59
1689045949.0548499,53
1689045949.0932388,51
1689045949.1386085,50
1689045949.187799,45
1689045949.2378283,37
1689045949.2888138,29
1689045949.338387,23
1689045949.3884683,22
1689045949.4385624,21
1689045949.488562,20
1689045949.5385618,19
1689045949.5885575,23
1689045949.638572,54
1689045949.6885571,75
1689045949.7385569,75
1689045949.788561,62
1689045949.8385613,53
1689045949.8886576,48
1689045949.9378653,49
1689045949.9882534,48
1689045950.0385857,41
1689045950.0882175,33
1689045950.1212132,26
1689045950.1712174,23
1689045950.2212129,21
1689045950.271217,21
1689045950.321213,20
1689045950.371217,18
1689045950.4212162,18
1689045950.4712133,37
1689045950.521223,66
1689045950.5712166,73
1689045950.621217,59
1689045950.6712165,46
1689045950.7212124,40
1689045950.7712116,41
1689045950.8205867,43
1689045950.870943,38
1689045950.920943,28
1689045950.9709427,19
1689045951.020938,13
1689045951.0709424,11
1689045951.104938,12
1689045951.1549377,13
1689045951.2049377,12
1689045951.2549427,12
1689045951.3089383,36
1689045951.3569374,70
1689045951.406999,69
1689045951.4569373,53
1689045951.506937,40
1689045951.556938,38
1689045951.6069372,42
1689045951.657404,44
1689045951.707488,37
1689045951.758019,26
1689045951.808058,17
1689045951.8586166,12
1689045951.9085932,11
1689045951.9579077,12
1689045952.0082278,11
1689045952.058736,22
1689045952.0946605,55
1689045952.1412735,73
1689045952.1907136,72
1689045952.2409275,56
1689045952.2909856,43
1689045952.3409352,39
1689045952.3914776,45
1689045952.4413548,47
1689045952.4913595,39
1689045952.541356,27
1689045952.5913556,17
1689045952.641359,14
1689045952.691355,15
1689045952.7413557,15
1689045952.7913542,29
1689045952.8413587,61
1689045952.8913546,79
1689045952.941354,69
1689045952.9913545,53
1689045953.0413587,43
1689045953.0913544,44
1689045953.1243565,51
1689045953.1743581,52
1689045953.2243543,43
1689045953.274358,32
1689045953.324358,23
1689045953.3743536,21
1689045953.424353,23
1689045953.4743583,27
1689045953.5243533,46
1689045953.5740259,79
1689045953.6242228,89
1689045953.6743214,77
1689045953.7243214,64
1689045953.7743208,55
1689045953.8243163,54
1689045953.874321,56
1689045953.9243164,50
1689045953.974316,40
1689045954.02396,30
1689045954.0739748,25
1689045954.1080425,24
1689045954.157981,24
1689045954.2079804,25
1689045954.2579808,41
1689045954.3089848,74
1689045954.3579848,88
1689045954.40798,79
1689045954.4579809,69
1689045954.5079846,61
1689045954.5579803,56
1689045954.6079803,56
1689045954.6579802,50
1689045954.7079797,40
1689045954.7579794,32
1689045954.8082874,26
1689045954.8586729,24
1689045954.9086602,24
1689045954.9579833,24
1689045955.0087688,37
1689045955.0582943,67
1689045955.0942912,82
1689045955.141295,78
1689045955.1912942,67
1689045955.2412941,58
1689045955.2912905,53
1689045955.341294,52
1689045955.3912942,49
1689045955.4412897,40
1689045955.4912937,32
1689045955.5412903,26
1689045955.5912905,23
1689045955.6412935,22
1689045955.691294,22
1689045955.7412934,22
1689045955.7912934,39
1689045955.8412893,67
1689045955.8912928,77
1689045955.9412892,68
1689045955.991293,57
1689045956.0412936,51
1689045956.0912886,50
1689045956.1252933,51
1689045956.1752925,48
1689045956.2252924,40
1689045956.2752895,31
1689045956.3252926,26
1689045956.3752923,24
1689045956.4252932,23
1689045956.4752872,23
1689045956.5252883,21
1689045956.5752938,32
1689045956.6252923,59
1689045956.675289,75
1689045956.725288,67
1689045956.775288,55
1689045956.8252876,47
1689045956.8752913,46
1689045956.9252882,47
1689045956.9752874,42
1689045957.0252874,32
1689045957.075291,22
1689045957.1082885,17
1689045957.1582909,14
1689045957.2083573,14
1689045957.258291,15
1689045957.3084605,14
1689045957.3586137,13
1689045957.4086194,32
1689045957.458614,62
1689045957.508615,66
1689045957.5586884,53
1689045957.6085637,40
1689045957.6594875,34
1689045957.7084875,39
1689045957.758482,41
1689045957.8084826,35
1689045957.8584838,24
