timestamp,bvp
1689046076.9478126,66
1689046076.997808,64
1689046077.0478134,58
1689046077.0978112,53
1689046077.130812,50
1689046077.1808083,48
1689046077.230809,47
1689046077.2808077,44
1689046077.3308117,41
1689046077.3808076,36
1689046077.4308066,32
1689046077.4807281,30
1689046077.5310767,29
1689046077.5810766,28
1689046077.6310766,26
1689046077.6810763,24
1689046077.7310762,22
1689046077.7810764,21
1689046077.8310761,36
1689046077.8810756,58
1689046077.930803,66
1689046077.9811544,60
1689046078.0311553,54
1689046078.0811598,50
1689046078.1151557,47
1689046078.1651595,47
1689046078.2151551,46
1689046078.2649975,41
1689046078.3151984,36
1689046078.3651893,30
1689046078.4146242,26
1689046078.4646237,25
1689046078.5156236,25
1689046078.5656238,24
1689046078.615607,21
1689046078.6648028,18
1689046078.7152135,15
1689046078.764764,13
1689046078.8160424,17
1689046078.8651254,42
1689046078.9151204,67
1689046078.965119,68
1689046079.015031,59
1689046079.0651429,52
1689046079.1041455,48
1689046079.1511486,48
1689046079.2012625,49
1689046079.2512581,46
1689046079.301263,40
1689046079.3512592,33
1689046079.4012585,28
1689046079.4512596,27
1689046079.501258,27
1689046079.5512578,26
1689046079.6012626,25
1689046079.651257,22
1689046079.7012577,24
1689046079.7512572,42
1689046079.801257,64
1689046079.8512626,65
1689046079.9012573,56
1689046079.9512577,47
1689046080.0012572,43
1689046080.0512576,46
1689046080.1012564,47
1689046080.1339703,43
1689046080.1840336,40
1689046080.2340443,34
1689046080.2840345,27
1689046080.3334236,26
1689046080.383686,27
1689046080.43444,27
1689046080.4839458,26
1689046080.5336192,24
1689046080.5836294,37
1689046080.6344075,60
1689046080.6837184,71
1689046080.7340665,66
1689046080.7845917,58
1689046080.8475914,52
1689046080.8975947,50
1689046080.9475899,50
1689046080.9985945,47
1689046081.0475945,41
1689046081.0985904,36
1689046081.1315901,31
1689046081.1825895,30
1689046081.2325897,29
1689046081.2825892,28
1689046081.332594,27
1689046081.3815937,26
1689046081.432589,23
1689046081.481591,27
1689046081.5325902,48
1689046081.5815904,68
1689046081.6325896,69
1689046081.6825898,62
1689046081.7325888,56
1689046081.78259,52
1689046081.8326244,50
1689046081.88259,49
1689046081.932588,45
1689046081.9815936,40
1689046082.032593,35
1689046082.082588,31
1689046082.1145883,29
1689046082.1655877,29
1689046082.2155883,28
1689046082.2655878,26
1689046082.314588,24
1689046082.3655932,21
1689046082.4152317,19
1689046082.464692,24
1689046082.5156915,47
1689046082.5646915,66
1689046082.6148744,65
1689046082.665614,57
1689046082.7149827,51
1689046082.7648292,47
1689046082.815194,47
1689046082.8647034,46
1689046082.9146993,42
1689046082.9647005,36
1689046083.0146985,29
1689046083.0646982,25
1689046083.1036992,23
1689046083.1487026,22
1689046083.1987026,22
1689046083.248698,20
1689046083.2987025,17
1689046083.3486981,14
1689046083.3987026,12
1689046083.448582,28
1689046083.4995773,61
1689046083.5495818,69
1689046083.5995777,62
1689046083.6487272,55
1689046083.6993086,47
1689046083.7493045,45
1689046083.799308,50
1689046083.8493085,48
1689046083.8993042,41
1689046083.9493034,34
1689046083.9991732,29
1689046084.049377,28
1689046084.0993729,28
1689046084.1323724,28
1689046084.1823766,27
1689046084.2323728,30
1689046084.282377,47
1689046084.3315864,64
1689046084.3823428,62
1689046084.4315827,53
1689046084.482632,45
1689046084.5316367,43
1689046084.5816383,46
1689046084.6316319,46
1689046084.6816328,41
1689046084.7316327,34
1689046084.781636,29
1689046084.8316321,27
1689046084.8816361,27
1689046084.9326313,28
1689046084.9816318,28
1689046085.031631,29
1689046085.0823934,44
1689046085.1147292,66
1689046085.1647255,70
1689046085.2147243,65
1689046085.2647257,58
1689046085.314957,53
1689046085.3652236,50
1689046085.4152284,50
1689046085.4652238,48
1689046085.5152283,42
1689046085.565224,37
1689046085.6152241,32
1689046085.6652284,30
1689046085.7152238,29
1689046085.7652278,28
1689046085.8292294,27
1689046085.879224,24
1689046085.9292245,31
1689046085.9792228,52
1689046086.0292277,68
1689046086.0792224,67
1689046086.1132247,60
1689046086.163227,57
1689046086.2122238,53
1689046086.262845,51
1689046086.314848,49
1689046086.3648438,46
1689046086.4148474,40
1689046086.4648435,36
1689046086.5149739,33
1689046086.5650246,31
1689046086.6152654,30
1689046086.6649494,29
1689046086.714736,27
1689046086.7647045,24
1689046086.8152199,21
1689046086.8674695,21
1689046086.9176173,36
1689046086.964871,59
1689046087.0157726,67
1689046087.0654132,61
1689046087.1041508,55
1689046087.1489406,52
1689046087.1994965,49
1689046087.249454,47
1689046087.2995272,46
1689046087.3487508,41
1689046087.3985627,36
1689046087.4488397,30
1689046087.4989448,26
1689046087.5486858,25
1689046087.599557,24
1689046087.649188,23
1689046087.6993191,21
1689046087.7490647,18
1689046087.7994292,16
1689046087.849164,17
1689046087.8991642,43
1689046087.9491634,67
1689046087.9991653,67
1689046088.0491679,60
1689046088.099163,53
1689046088.132163,49
1689046088.1821637,49
1689046088.2327223,50
1689046088.2817247,48
1689046088.3316891,42
1689046088.3841925,36
1689046088.431972,32
1689046088.4819736,30
1689046088.5321097,30
1689046088.5821135,29
1689046088.6321094,27
1689046088.6821094,31
1689046088.7321093,49
1689046088.7821143,63
1689046088.832114,60
1689046088.8821084,52
1689046088.9321094,46
1689046088.9821084,44
1689046089.032455,46
1689046089.081971,45
1689046089.1157537,40
1689046089.1665654,36
1689046089.2161674,31
1689046089.2661629,28
1689046089.317341,27
1689046089.3663547,28
1689046089.4163547,27
1689046089.4673543,29
1689046089.517355,44
1689046089.566354,63
1689046089.616359,65
1689046089.666354,58
1689046089.7163587,52
1689046089.7663538,49
1689046089.8163533,48
1689046089.8658252,48
1689046089.9161994,44
1689046089.9659562,39
1689046090.0160067,34
1689046090.0660057,32
1689046090.1050057,31
1689046090.1490102,31
1689046090.199005,31
1689046090.2490096,30
1689046090.2990055,34
1689046090.3520055,52
1689046090.4020052,65
1689046090.4520092,64
1689046090.5020094,58
1689046090.5520048,54
1689046090.6020777,50
1689046090.652009,48
1689046090.702005,46
1689046090.7520053,42
1689046090.8020043,38
1689046090.8520093,34
1689046090.9020042,32
1689046090.9520042,31
1689046091.0020041,30
1689046091.0520036,29
1689046091.1020038,28
1689046091.135004,26
1689046091.1850045,27
1689046091.235004,40
1689046091.2850037,56
1689046091.3350039,60
1689046091.3850086,56
1689046091.435004,52
1689046091.4850028,48
1689046091.5350044,46
1689046091.58541,44
1689046091.6353083,41
1689046091.6853085,38
1689046091.7353077,34
1689046091.7853432,31
1689046091.8347414,29
1689046091.8847368,29
1689046091.934739,28
1689046091.9847405,26
1689046092.0347373,24
1689046092.0847406,22
1689046092.1187363,21
1689046092.1687355,25
1689046092.218889,42
1689046092.268778,56
1689046092.318778,55
1689046092.3687782,50
1689046092.4187818,46
1689046092.4687834,43
1689046092.5187817,43
1689046092.5687768,42
1689046092.6187818,40
1689046092.6687775,35
1689046092.718777,31
1689046092.7687764,29
1689046092.8187776,28
1689046092.8687785,28
1689046092.918786,27
1689046092.968784,26
1689046093.0187807,23
1689046093.0687819,27
1689046093.1047769,42
1689046093.1547806,52
1689046093.2047772,54
1689046093.2547805,49
1689046093.316777,43
1689046093.365776,41
1689046093.4157772,42
1689046093.4657762,42
1689046093.5157762,40
1689046093.5657754,35
1689046093.6157799,31
1689046093.665775,29
1689046093.715776,29
1689046093.7657802,29
1689046093.81578,28
1689046093.8657796,32
1689046093.9167747,45
1689046093.9657762,55
1689046094.0157747,65
1689046094.0657763,54
1689046094.104781,46
1689046094.1487787,44
1689046094.1987753,47
1689046094.2487752,48
1689046094.298774,41
1689046094.3487787,36
1689046094.3987744,25
1689046094.4487784,21
1689046094.4987738,21
1689046094.5487785,21
1689046094.5987735,21
1689046094.648778,41
1689046094.6987736,71
1689046094.748773,78
1689046094.798774,69
1689046094.8487787,61
1689046094.8997784,54
1689046094.9497774,52
1689046094.999773,52
1689046095.0497727,47
1689046095.0997777,39
1689046095.1327734,30
1689046095.1827724,25
1689046095.2327733,22
1689046095.282777,22
1689046095.3327723,21
1689046095.3827767,19
1689046095.432841,25
1689046095.4827766,53
1689046095.5327718,81
1689046095.5827765,82
1689046095.6327724,72
1689046095.6827762,65
1689046095.7327733,59
1689046095.7827725,56
1689046095.8327773,53
1689046095.882777,46
1689046095.9327722,37
1689046095.9827762,29
1689046096.0327716,24
1689046096.0827756,22
1689046096.115776,20
1689046096.1657715,19
1689046096.215771,17
1689046096.2657716,15
1689046096.3197756,32
1689046096.3687716,72
1689046096.418771,81
1689046096.4687705,72
1689046096.5187752,62
1689046096.568771,55
1689046096.6187701,53
1689046096.6687703,52
1689046096.7187703,47
1689046096.7687705,38
1689046096.8187745,29
1689046096.868775,23
1689046096.9187744,20
1689046096.9687703,19
1689046097.0187745,18
1689046097.068771,15
1689046097.10477,12
1689046097.1517742,11
1689046097.2017744,31
1689046097.2517738,67
1689046097.3017693,79
1689046097.3517687,69
1689046097.4024115,57
1689046097.4524188,50
1689046097.5024202,48
1689046097.5524137,49
1689046097.6024146,44
1689046097.6524136,35
1689046097.702414,25
1689046097.7534144,18
1689046097.8034153,15
1689046097.8534179,14
1689046097.9034135,12
1689046097.9534185,10
1689046098.0034132,5
1689046098.053413,12
1689046098.10221,45
1689046098.1360414,75
1689046098.1861422,75
1689046098.236467,61
1689046098.2864661,47
1689046098.3364682,40
1689046098.3864658,42
1689046098.4364662,44
1689046098.4864712,39
1689046098.5364704,27
1689046098.5864666,15
1689046098.6364667,8
1689046098.6864653,5
1689046098.7364662,6
1689046098.7864704,6
1689046098.836466,4
1689046098.8864698,1
1689046098.9364707,29
1689046098.9864697,70
1689046099.0364661,78
1689046099.08647,63
1689046099.1194694,44
1689046099.1694655,38
1689046099.219466,40
1689046099.2694693,49
1689046099.3194692,47
1689046099.369469,36
1689046099.419464,22
1689046099.4694643,14
1689046099.5188682,12
1689046099.5688837,13
1689046099.6188836,14
1689046099.6688895,27
1689046099.7189078,61
1689046099.7686195,82
1689046099.8188004,73
1689046099.868795,54
1689046099.918921,40
1689046099.9692092,42
1689046100.0192044,51
1689046100.0692108,49
1689046100.105209,37
1689046100.1532135,28
1689046100.2032046,17
1689046100.2532086,13
1689046100.3032095,14
1689046100.353205,14
1689046100.4032047,23
1689046100.4532042,57
1689046100.5032082,87
1689046100.5532033,83
1689046100.6032035,67
1689046100.652607,54
1689046100.702661,50
1689046100.752661,54
1689046100.8026571,54
1689046100.8526623,44
1689046100.9026568,32
1689046100.952661,21
1689046101.0026565,17
1689046101.0526605,17
1689046101.102656,17
1689046101.140657,22
1689046101.1886601,40
1689046101.238879,78
1689046101.2888784,89
1689046101.3499415,75
1689046101.3999484,63
1689046101.4499536,56
1689046101.499949,54
1689046101.5499527,54
1689046101.599949,47
1689046101.649559,36
1689046101.6997275,25
1689046101.7499497,19
1689046101.8000886,18
1689046101.8500926,19
1689046101.9000885,16
1689046101.9500887,24
1689046102.0030878,57
1689046102.0530922,83
1689046102.1030889,78
1689046102.1530893,63
1689046102.2030878,57
1689046102.2530923,51
1689046102.303088,51
1689046102.3530872,48
1689046102.4030871,39
1689046102.4530916,29
1689046102.5030878,22
1689046102.5530868,19
1689046102.6030872,18
1689046102.6530871,17
1689046102.7030873,13
1689046102.7530916,22
1689046102.8030868,54
1689046102.8532836,80
1689046102.9032938,76
1689046102.9532936,67
1689046103.0032897,59
1689046103.0532932,51
1689046103.1032894,49
1689046103.1412976,46
1689046103.1892884,42
1689046103.2392938,33
1689046103.2892885,25
1689046103.350293,20
1689046103.400293,20
1689046103.4502885,18
1689046103.5002885,15
1689046103.5502925,12
1689046103.6002924,8
1689046103.6502888,24
1689046103.7032883,60
1689046103.7532928,80
1689046103.8033547,75
1689046103.853292,68
1689046103.903288,61
1689046103.9532924,55
1689046104.0032873,53
1689046104.0532918,49
1689046104.103292,41
1689046104.1362915,33
1689046104.186292,28
1689046104.2362921,24
1689046104.2862914,22
1689046104.3362868,20
1689046104.3862915,18
1689046104.4362876,14
1689046104.4862912,11
1689046104.5362911,9
1689046104.5862873,8
1689046104.6362867,8
1689046104.6862912,21
1689046104.7362866,55
1689046104.786291,78
1689046104.8362873,74
1689046104.8862908,67
1689046104.9362907,62
1689046104.9862862,57
1689046105.036286,54
1689046105.0862753,51
1689046105.1196237,44
1689046105.1696353,40
1689046105.2196386,32
1689046105.2696362,27
1689046105.3206306,24
1689046105.3696346,22
1689046105.4196303,20
1689046105.4696348,17
1689046105.519634,13
1689046105.5696301,8
1689046105.6196294,6
1689046105.6696293,4
1689046105.7206292,5
1689046105.7696335,12
1689046105.8196297,44
1689046105.8696296,74
1689046105.9196353,74
1689046105.9696329,65
1689046106.0196297,60
1689046106.0696332,56
1689046106.105635,54
1689046106.1536293,53
1689046106.202633,50
1689046106.2526329,42
1689046106.302628,36
1689046106.3526285,30
1689046106.4026332,27
1689046106.4526331,25
1689046106.5026286,23
1689046106.5532186,21
1689046106.6032226,17
1689046106.6532223,13
1689046106.703218,10
1689046106.7532225,8
1689046106.8032186,10
1689046106.853222,42
1689046106.9032223,74
1689046106.953225,78
1689046107.0032227,68
1689046107.0532217,62
1689046107.103217,58
1689046107.1372178,55
1689046107.1872191,55
1689046107.2372231,53
1689046107.2872167,47
1689046107.337217,39
1689046107.3872163,32
1689046107.4372175,28
1689046107.487221,26
1689046107.5372214,25
1689046107.587221,23
1689046107.6372173,20
1689046107.687217,15
1689046107.7372386,12
1689046107.7872167,9
1689046107.8372207,18
1689046107.8872156,53
1689046107.9372165,81
1689046107.9872205,79
1689046108.03722,68
1689046108.0872216,61
1689046108.1202164,57
1689046108.1702204,57
1689046108.2202158,58
1689046108.2702157,54
1689046108.3202205,45
1689046108.3702157,36
1689046108.42022,29
1689046108.47022,25
1689046108.5202193,23
1689046108.5702193,21
1689046108.6202152,17
1689046108.6702154,11
1689046108.7202191,4
1689046108.7702155,0
1689046108.8202193,0
1689046108.870219,31
1689046108.9198909,74
1689046108.9699993,82
1689046109.0199957,68
1689046109.0699952,53
1689046109.1059945,44
1689046109.1529992,44
1689046109.2029953,49
1689046109.2529988,48
1689046109.302999,37
1689046109.352994,19
1689046109.4028482,8
1689046109.4533603,2
1689046109.503361,0
1689046109.5533655,1
1689046109.6033604,0
1689046109.6533647,0
1689046109.7033648,0
1689046109.7533655,0
1689046109.8033648,45
1689046109.85336,83
1689046109.9033604,77
1689046109.9533641,51
1689046110.0033596,25
1689046110.0533643,17
1689046110.1034184,40
1689046110.1373668,48
1689046110.18736,43
1689046110.2373643,27
1689046110.287359,10
1689046110.3373604,0
1689046110.387364,0
1689046110.4373586,0
1689046110.487233,0
1689046110.5372305,1
1689046110.5872288,30
1689046110.6372333,83
1689046110.687233,102
1689046110.7372293,62
1689046110.7872283,49
1689046110.8372278,40
1689046110.8872328,41
1689046110.937233,49
1689046110.9872375,49
1689046111.0372796,41
1689046111.0872324,32
1689046111.1392717,26
1689046111.1872766,23
1689046111.2372723,24
1689046111.28652,26
1689046111.337461,26
1689046111.386601,42
1689046111.4367783,68
1689046111.4867733,75
1689046111.5367777,68
1689046111.5867777,60
1689046111.6367726,53
1689046111.686777,51
1689046111.7367773,53
1689046111.7867727,52
1689046111.8367784,44
1689046111.8867772,37
1689046111.936772,32
1689046111.9867728,31
1689046112.0367725,31
1689046112.0867786,32
1689046112.1197789,31
1689046112.1757762,38
1689046112.2257717,60
1689046112.2757719,69
1689046112.3337746,66
1689046112.3837767,60
1689046112.4337718,56
1689046112.4837754,52
1689046112.5337715,51
1689046112.583772,49
1689046112.633909,45
1689046112.6838953,40
1689046112.733891,36
1689046112.7839458,34
1689046112.8343067,33
1689046112.884311,33
1689046112.9343164,32
1689046112.9843056,30
1689046113.03431,40
1689046113.0843062,57
1689046113.1183114,62
1689046113.173312,60
1689046113.2233098,56
1689046113.2733107,53
1689046113.3343098,49
1689046113.3863056,48
1689046113.4343097,46
1689046113.4843054,42
1689046113.5343058,38
1689046113.584309,35
1689046113.6343052,33
1689046113.684309,33
1689046113.7343047,32
1689046113.784309,30
1689046113.8343089,28
1689046113.884305,32
1689046113.9340334,47
1689046113.9839416,59
1689046114.0339396,58
1689046114.083634,55
1689046114.1366343,52
1689046114.186634,48
1689046114.2366376,47
1689046114.2866333,46
1689046114.3366337,42
1689046114.386638,39
1689046114.4366336,36
1689046114.486633,34
1689046114.5366333,33
1689046114.5866332,32
1689046114.6366332,31
1689046114.6866329,29
1689046114.736633,28
1689046114.7866333,29
1689046114.8366385,42
1689046114.8866367,58
1689046114.9366367,61
1689046114.986633,57
1689046115.0366778,54
1689046115.0866828,51
1689046115.1206777,48
1689046115.1706786,48
1689046115.2206821,46
1689046115.270682,42
1689046115.3206775,39
1689046115.3706832,35
1689046115.4206772,34
1689046115.4706829,33
1689046115.5206814,33
1689046115.5706775,31
1689046115.6206772,29
1689046115.670681,28
1689046115.7212365,27
1689046115.7712436,28
1689046115.821236,40
1689046115.8712354,61
1689046115.9212399,62
1689046115.9712384,58
1689046116.0210803,55
1689046116.070653,52
1689046116.1066515,50
1689046116.1536472,50
1689046116.2036467,47
1689046116.253647,42
1689046116.3036473,39
1689046116.3536513,35
1689046116.4036596,34
1689046116.4536638,33
1689046116.5036595,32
1689046116.553661,30
1689046116.6036599,28
1689046116.653659,26
1689046116.7036636,24
1689046116.753663,24
1689046116.8036585,30
1689046116.8537276,49
1689046116.9041152,63
1689046116.9541142,62
1689046117.0041142,58
1689046117.0541108,55
1689046117.1041157,52
1689046117.1371105,50
1689046117.187114,49
1689046117.2371116,46
1689046117.2871099,41
1689046117.3371096,37
1689046117.3871095,34
1689046117.4371135,32
1689046117.4871097,31
1689046117.5371096,30
1689046117.5871134,28
1689046117.6371093,26
1689046117.6871138,25
1689046117.737113,23
1689046117.787204,22
1689046117.837205,21
1689046117.887205,26
1689046117.9372056,43
1689046117.9872043,62
1689046118.037204,63
1689046118.087141,58
1689046118.1206105,55
1689046118.1709306,53
1689046118.2209315,50
1689046118.2709358,49
1689046118.3209317,46
1689046118.3709307,41
1689046118.4209354,37
1689046118.4709363,33
1689046118.5209315,31
1689046118.5709302,31
1689046118.6209316,30
1689046118.6709301,28
1689046118.7209308,26
1689046118.7709308,24
1689046118.8209362,22
1689046118.8709347,21
1689046118.92093,21
1689046118.9709349,30
1689046119.0209298,50
1689046119.070934,63
1689046119.106934,61
1689046119.1539295,57
1689046119.2039316,53
1689046119.253929,50
1689046119.3034878,49
1689046119.354313,48
1689046119.4037058,44
1689046119.4537444,40
1689046119.504275,35
1689046119.5536532,32
1689046119.6044133,30
1689046119.654336,30
1689046119.7043912,29
1689046119.7538786,27
1689046119.8038766,25
1689046119.853877,23
1689046119.9038806,21
1689046119.9538813,21
1689046120.003881,29
1689046120.05388,49
1689046120.1038802,63
1689046120.1378765,60
1689046120.1878753,56
1689046120.2378757,51
1689046120.2882476,48
1689046120.3382895,48
1689046120.3882902,47
1689046120.4382894,44
1689046120.4882896,39
1689046120.5382884,34
1689046120.5878167,31
1689046120.6380491,30
1689046120.6880484,29
1689046120.7380486,29
1689046120.7880483,27
1689046120.8376489,25
1689046120.8884966,23
1689046120.938498,22
1689046120.9884975,23
1689046121.0384972,39
1689046121.0884974,58
1689046121.1214972,62
1689046121.1714983,59
1689046121.2214975,52
1689046121.2715008,48
1689046121.321496,47
1689046121.3715005,48
1689046121.421497,46
1689046121.4715014,41
1689046121.5214956,37
1689046121.5714967,33
1689046121.6214955,31
1689046121.6714954,31
1689046121.7214966,31
1689046121.7715003,30
1689046121.8215,28
1689046121.8705668,26
1689046121.9213107,25
1689046121.9708083,38
1689046122.0208077,57
1689046122.0708337,63
1689046122.1068287,58
1689046122.1538286,53
1689046122.203559,48
1689046122.2537334,47
1689046122.3037326,48
1689046122.3537326,47
1689046122.4037335,42
1689046122.4537332,38
1689046122.5037327,34
1689046122.5537333,32
1689046122.603732,31
1689046122.6537466,31
1689046122.703732,31
1689046122.7537317,29
1689046122.8037317,27
1689046122.8547313,29
1689046122.904732,44
1689046122.9547317,61
1689046123.0047317,63
1689046123.054732,56
1689046123.1047313,50
1689046123.1427329,48
1689046123.1907313,48
1689046123.2407308,50
1689046123.290739,47
1689046123.351731,40
1689046123.4017303,37
1689046123.451732,34
1689046123.501731,33
1689046123.5517309,33
1689046123.6017308,33
1689046123.6517313,31
1689046123.7017307,30
1689046123.7517307,28
1689046123.8017306,40
1689046123.8517306,58
1689046123.9017313,64
1689046123.9517298,58
1689046124.00173,52
1689046124.0517306,48
1689046124.10173,48
1689046124.1397302,49
1689046124.187731,47
1689046124.2377298,42
1689046124.2877297,38
1689046124.3377292,35
1689046124.387729,33
1689046124.4377298,33
1689046124.4877284,33
1689046124.537729,32
1689046124.587729,30
1689046124.6377296,28
1689046124.687729,32
1689046124.7377288,48
1689046124.7877288,62
1689046124.8377285,60
1689046124.8877287,53
1689046124.9377284,49
1689046124.9877286,47
1689046125.0377288,48
1689046125.0877278,47
1689046125.1207278,42
1689046125.176728,40
1689046125.2267287,35
1689046125.2767282,33
1689046125.3347282,32
1689046125.3847277,32
1689046125.4347277,31
1689046125.4847274,30
1689046125.5347276,28
1689046125.5847278,27
1689046125.6347277,37
1689046125.6847272,55
1689046125.734727,62
1689046125.7847278,57
1689046125.8347268,51
1689046125.8847277,47
1689046125.934727,47
1689046125.9847264,48
1689046126.034727,45
1689046126.0847266,40
1689046126.1185472,36
1689046126.1743906,33
1689046126.223985,32
1689046126.273811,31
1689046126.334899,31
1689046126.3868952,28
1689046126.434894,26
1689046126.4848988,23
1689046126.5348988,30
1689046126.584896,49
1689046126.6348946,60
1689046126.6848943,55
1689046126.7348979,47
1689046126.8138933,42
1689046126.862817,43
1689046126.9125025,43
1689046126.962991,38
1689046127.0129907,32
1689046127.0629964,27
1689046127.1079912,25
1689046127.1489909,26
1689046127.1989913,26
1689046127.2489915,26
1689046127.2989924,24
1689046127.351991,21
1689046127.4019954,28
1689046127.4519918,49
1689046127.5019908,57
1689046127.5519907,52
1689046127.6019907,42
1689046127.6517117,37
1689046127.7017107,40
1689046127.7520068,44
1689046127.8020062,42
1689046127.8520021,37
1689046127.9020014,31
1689046127.9520013,28
1689046128.0020018,28
1689046128.0530071,29
1689046128.1020062,29
1689046128.1350017,27
1689046128.1850014,25
1689046128.2350006,34
1689046128.2850015,53
1689046128.3360014,62
1689046128.3860006,56
1689046128.436001,47
1689046128.4859862,42
1689046128.5361714,44
1689046128.5861714,47
1689046128.6361754,45
1689046128.6861713,40
1689046128.736175,33
1689046128.7861757,30
1689046128.8361707,30
1689046128.886171,31
1689046128.936175,30
1689046128.9861708,28
1689046129.0361702,39
1689046129.0861707,58
1689046129.1191766,66
1689046129.1691747,63
1689046129.2191746,57
1689046129.2691753,52
1689046129.3201764,49
1689046129.3691761,50
1689046129.4191694,49
1689046129.4691706,44
1689046129.5191765,39
1689046129.5691712,34
1689046129.61917,33
1689046129.6691735,33
1689046129.7191691,33
1689046129.7691736,34
1689046129.8191702,47
1689046129.8691733,62
1689046129.919169,63
1689046129.9687474,59
1689046130.0188115,56
1689046130.068808,51
1689046130.1078064,48
1689046130.1518059,47
1689046130.2018106,45
1689046130.2518067,41
1689046130.3018107,37
1689046130.3518064,33
1689046130.4018068,32
1689046130.4518104,32
1689046130.5024467,31
1689046130.5524473,31
1689046130.6024506,42
1689046130.652446,58
1689046130.7024508,62
1689046130.7524462,59
1689046130.802446,56
1689046130.8524504,51
1689046130.902446,47
1689046130.952446,46
1689046131.0024455,43
1689046131.0524476,40
1689046131.10245,35
1689046131.136451,32
1689046131.1864457,31
1689046131.2364447,31
1689046131.2864316,30
1689046131.3357441,28
1689046131.385744,27
1689046131.435744,37
1689046131.4857435,53
1689046131.535744,58
1689046131.5857434,55
1689046131.6357434,53
1689046131.6857438,50
1689046131.7357438,46
1689046131.7857437,44
1689046131.835743,42
1689046131.8857434,39
1689046131.9357433,35
1689046131.9865136,33
1689046132.0364537,32
1689046132.0864546,31
1689046132.1194532,30
1689046132.169348,29
1689046132.2191608,27
1689046132.2691557,25
1689046132.320161,26
1689046132.3701558,38
1689046132.420157,53
1689046132.4691556,57
1689046132.5191603,55
1689046132.5691557,53
1689046132.6191602,50
1689046132.6694915,47
1689046132.7194872,45
1689046132.7694879,43
1689046132.8190324,40
1689046132.8693857,37
1689046132.919311,35
1689046132.9688873,34
1689046133.0193543,34
1689046133.0693495,33
1689046133.1083493,31
1689046133.1553495,30
1689046133.2053618,28
1689046133.2553616,28
1689046133.3053615,36
1689046133.3553615,50
1689046133.4053617,58
1689046133.455362,57
1689046133.5053613,55
1689046133.5553613,52
1689046133.6054251,49
1689046133.655362,47
1689046133.705362,45
1689046133.7553618,41
1689046133.8053603,38
1689046133.8551233,35
1689046133.905166,34
1689046133.9554045,33
1689046134.0055187,32
1689046134.0555189,30
1689046134.1045144,28
1689046134.14352,27
1689046134.192513,26
1689046134.241513,26
1689046134.2925138,36
1689046134.3505147,53
1689046134.399579,56
1689046134.450513,54
1689046134.4991724,53
1689046134.5496335,50
1689046134.5996335,47
1689046134.6496336,46
1689046134.69975,43
1689046134.7495215,40
1689046134.8000634,37
1689046134.849784,34
1689046134.9000316,33
1689046134.9496715,32
1689046135.0002809,31
1689046135.0497751,29
1689046135.1003754,28
1689046135.1393464,27
1689046135.1893148,26
1689046135.2390928,25
1689046135.288604,32
1689046135.3389688,48
1689046135.3894205,59
1689046135.4394245,58
1689046135.4894202,56
1689046135.5394244,54
1689046135.5894198,51
1689046135.6394255,50
1689046135.689576,48
1689046135.7389657,45
1689046135.7890053,40
1689046135.8391128,38
1689046135.8891082,36
1689046135.9387143,35
1689046135.989001,33
1689046136.0390007,32
1689046136.0890014,30
1689046136.1220005,29
1689046136.1719372,28
1689046136.222479,27
1689046136.2719676,28
1689046136.3241384,37
1689046136.3718638,53
1689046136.4218569,61
1689046136.4718564,58
1689046136.5218632,55
1689046136.571861,52
1689046136.6218572,49
1689046136.6718564,48
1689046136.721856,46
1689046136.7718608,41
1689046136.8221142,38
1689046136.8717487,34
1689046136.9219542,33
1689046136.9724808,32
1689046137.0222917,31
1689046137.0717788,30
1689046137.1081092,28
1689046137.1561058,27
1689046137.2061043,25
1689046137.256104,25
1689046137.3057497,24
1689046137.3558385,30
1689046137.4063087,46
1689046137.4564242,59
1689046137.5051584,59
1689046137.5562258,55
1689046137.6055644,52
1689046137.6555648,49
1689046137.70557,47
1689046137.7555654,46
1689046137.805624,43
1689046137.8565643,39
1689046137.905564,35
1689046137.9555638,32
1689046138.0055647,31
1689046138.0565643,31
1689046138.1055682,30
1689046138.1385448,28
1689046138.1890385,27
1689046138.239143,25
1689046138.2889583,24
1689046138.33896,24
1689046138.3889575,27
1689046138.438962,42
1689046138.4887319,58
1689046138.5392957,60
1689046138.5894125,56
1689046138.6392016,52
1689046138.6892066,49
1689046138.738888,47
1689046138.7886407,47
1689046138.853168,43
1689046138.9034736,40
1689046138.9528782,35
1689046139.0025182,33
1689046139.0532546,31
1689046139.1030066,31
1689046139.135988,30
1689046139.1861184,29
1689046139.2364058,28
1689046139.2864888,26
1689046139.3360252,25
1689046139.386201,26
1689046139.4364257,38
1689046139.4858892,55
1689046139.535889,61
1689046139.585889,57
1689046139.635893,52
1689046139.6858885,49
1689046139.7358885,47
1689046139.785889,47
1689046139.8358884,45
1689046139.8859637,41
1689046139.935888,37
1689046139.985888,34
1689046140.0358877,32
1689046140.085954,31
1689046140.120478,31
1689046140.175184,30
1689046140.2251828,29
1689046140.2751875,27
1689046140.3361828,27
1689046140.3861825,38
1689046140.4355662,55
1689046140.4864285,61
1689046140.5364287,56
1689046140.5865457,51
1689046140.6358385,47
1689046140.6858325,46
1689046140.7359743,47
1689046140.7864933,45
1689046140.836493,40
1689046140.8857484,36
1689046140.9361312,33
1689046140.9861412,32
1689046141.0355678,31
1689046141.0855727,31
1689046141.119568,30
1689046141.1695726,29
1689046141.219568,28
1689046141.2695723,29
1689046141.3235726,42
1689046141.372572,58
1689046141.4225678,59
1689046141.472567,53
1689046141.5225677,47
1689046141.5725713,45
1689046141.6225672,46
1689046141.672567,46
1689046141.7225668,43
1689046141.772571,39
1689046141.8225687,34
1689046141.8725667,32
1689046141.9225714,32
1689046141.9725685,32
1689046142.022566,31
1689046142.0725675,30
1689046142.1085663,29
1689046142.1555672,29
1689046142.2055705,39
1689046142.2555707,55
1689046142.3055656,60
1689046142.355566,55
1689046142.4055705,48
1689046142.4555652,45
1689046142.5055652,45
1689046142.55566,47
1689046142.60608,44
1689046142.6560771,40
1689046142.7060795,36
1689046142.756075,33
1689046142.8060744,32
1689046142.8560789,32
1689046142.9060748,32
1689046142.9563105,31
1689046143.0063388,29
1689046143.0563395,32
1689046143.1063442,49
1689046143.139344,60
1689046143.189343,60
1689046143.2393384,54
1689046143.2893898,47
1689046143.3393857,44
1689046143.3893867,46
1689046143.4393895,46
1689046143.489386,43
1689046143.539389,39
1689046143.589387,35
1689046143.6393843,32
1689046143.689385,32
1689046143.739389,32
1689046143.7893841,32
1689046143.8393884,31
1689046143.8893847,29
1689046143.9393842,37
1689046143.9894357,53
1689046144.0385427,61
1689046144.0885427,56
1689046144.1226227,49
1689046144.1726182,46
1689046144.2226229,45
1689046144.272618,46
1689046144.322623,46
1689046144.3726177,41
1689046144.4226227,37
1689046144.4726286,33
1689046144.5226185,32
1689046144.572622,32
1689046144.6226175,32
1689046144.6726172,32
1689046144.7226179,30
1689046144.7726219,34
1689046144.8226175,48
1689046144.8726225,60
1689046144.9226222,58
1689046144.9726167,51
1689046145.0236187,46
1689046145.0726213,45
1689046145.1086164,46
1689046145.1556172,46
1689046145.205621,42
1689046145.2556214,38
1689046145.3056211,34
1689046145.355617,31
1689046145.4056163,31
1689046145.4556172,31
1689046145.5056174,31
1689046145.555617,30
1689046145.6056204,31
1689046145.655617,43
1689046145.7056208,58
1689046145.7556155,59
1689046145.8056164,52
1689046145.8556154,47
1689046145.9056196,45
1689046145.955616,46
1689046146.005616,46
1689046146.0556214,42
1689046146.105615,38
1689046146.1396148,34
1689046146.1900551,33
1689046146.2399175,32
1689046146.289914,32
1689046146.3399134,32
1689046146.3899186,31
1689046146.439917,30
1689046146.489913,40
1689046146.5399132,55
1689046146.5899124,58
1689046146.639917,52
1689046146.6899173,46
1689046146.739912,43
1689046146.789912,43
1689046146.8399124,43
1689046146.8899171,40
1689046146.9399118,36
1689046146.989912,31
1689046147.0399115,29
1689046147.0899122,29
1689046147.1229115,30
1689046147.172916,30
1689046147.2229123,29
1689046147.272918,28
1689046147.3249118,37
1689046147.372916,51
1689046147.4229116,53
1689046147.4729164,55
1689046147.5229113,43
1689046147.5729158,40
1689046147.6232054,45
1689046147.6727767,47
1689046147.7227767,40
1689046147.7727802,32
1689046147.8227766,25
1689046147.8727767,23
1689046147.9227755,24
1689046147.9727802,24
1689046148.0227754,22
1689046148.0727758,35
1689046148.1087759,60
1689046148.1557758,69
1689046148.2057798,63
1689046148.25578,51
1689046148.3057797,43
1689046148.3557763,44
1689046148.4057796,48
1689046148.4557793,46
1689046148.5067794,38
1689046148.556775,29
1689046148.6067793,24
1689046148.6567798,24
1689046148.7067788,25
1689046148.7567744,24
1689046148.8067791,32
1689046148.8567739,56
1689046148.906774,72
1689046148.956775,69
1689046149.0077739,60
1689046149.0567746,52
1689046149.106779,49
1689046149.1567733,50
1689046149.206778,49
1689046149.2567742,40
1689046149.3067734,32
1689046149.3567739,27
1689046149.4067736,27
1689046149.4567735,27
1689046149.5067742,25
1689046149.556773,32
1689046149.606645,55
1689046149.6573663,72
1689046149.7073703,69
1689046149.7573647,63
1689046149.80737,57
1689046149.8573692,51
1689046149.9073687,49
1689046149.9573689,46
1689046150.007368,40
1689046150.0573635,33
1689046150.1073642,28
1689046150.1453643,25
1689046150.1933637,25
1689046150.2433677,24
1689046150.2933683,23
1689046150.3543634,40
1689046150.4043677,66
1689046150.4543674,69
1689046150.5044603,65
1689046150.5543625,61
1689046150.6043673,54
1689046150.6543634,48
1689046150.7043672,46
1689046150.754364,42
1689046150.804362,36
1689046150.8543673,30
1689046150.9043677,27
1689046150.9543626,25
1689046151.0043666,24
1689046151.0543625,23
1689046151.1043665,20
1689046151.1373665,35
1689046151.1873617,47
1689046151.2373667,66
1689046151.2873666,67
1689046151.337367,64
1689046151.3903613,60
1689046151.4373615,52
1689046151.487362,48
1689046151.5373657,46
1689046151.5873635,40
1689046151.6373656,35
1689046151.6873655,29
1689046151.737378,26
1689046151.7873745,25
1689046151.8373787,23
1689046151.887374,21
1689046151.9373777,18
1689046151.987374,17
1689046152.0373776,33
1689046152.0873775,57
1689046152.1213727,68
1689046152.1713774,67
1689046152.221373,64
1689046152.2713776,59
1689046152.3223732,52
1689046152.371377,50
1689046152.4213781,47
1689046152.4713721,41
1689046152.5213733,35
1689046152.5713727,30
1689046152.621373,27
1689046152.6713727,26
1689046152.7213717,24
1689046152.7713728,21
1689046152.8213763,18
1689046152.8713727,17
1689046152.923376,31
1689046152.9713762,56
1689046153.0213723,68
1689046153.0713758,67
1689046153.1103756,65
1689046153.1543717,61
1689046153.2043755,54
1689046153.2543757,50
1689046153.3043709,47
1689046153.3543715,40
1689046153.4043756,35
1689046153.4543717,29
1689046153.504375,26
1689046153.5543714,25
1689046153.6043754,23
1689046153.6543703,20
1689046153.7043703,16
1689046153.754371,14
1689046153.8043747,17
1689046153.854371,38
1689046153.9043698,62
1689046153.9543707,68
1689046154.0043707,65
1689046154.054375,63
1689046154.1043696,56
1689046154.1383696,51
1689046154.1883698,49
1689046154.238369,46
1689046154.2882063,40
1689046154.3381524,32
1689046154.3883576,27
1689046154.4383569,25
1689046154.4883568,24
1689046154.538352,21
1689046154.5883565,18
1689046154.6383824,15
1689046154.688387,13
1689046154.738387,11
1689046154.7883823,21
1689046154.8523815,64
1689046154.9023862,69
1689046154.9523818,66
1689046155.002387,63
1689046155.052382,56
1689046155.1023858,51
1689046155.1353858,49
1689046155.1853862,46
1689046155.2353806,39
1689046155.2846053,31
1689046155.3378785,26
1689046155.3878825,24
1689046155.4378822,23
1689046155.4878778,20
1689046155.537879,17
1689046155.5878773,14
1689046155.6378818,12
1689046155.687883,12
1689046155.7378824,30
1689046155.7878773,59
1689046155.8378816,70
1689046155.887882,66
1689046155.9380753,62
1689046155.9880755,56
1689046156.0384204,50
1689046156.088137,49
1689046156.121146,45
1689046156.1711514,40
1689046156.221146,33
1689046156.2711499,28
1689046156.3211455,25
1689046156.372145,23
1689046156.4211502,22
1689046156.4711504,19
1689046156.5211456,17
1689046156.5711443,14
1689046156.621145,13
1689046156.6721444,19
1689046156.7221491,44
1689046156.771145,72
1689046156.821144,75
1689046156.8711493,69
1689046156.9211483,65
1689046156.9711442,59
1689046157.0211444,54
1689046157.0711498,51
1689046157.1101491,45
1689046157.154144,40
1689046157.2041483,33
1689046157.254149,27
1689046157.3041482,25
1689046157.354143,23
1689046157.4041476,21
1689046157.454144,19
1689046157.5041428,16
1689046157.5551443,13
1689046157.6051478,12
1689046157.6551435,13
1689046157.705143,29
1689046157.755143,65
1689046157.8051474,77
1689046157.8551478,72
1689046157.9051428,65
1689046157.9551425,60
1689046158.005148,54
1689046158.0551467,52
1689046158.1051428,48
1689046158.142535,40
1689046158.1912758,34
1689046158.2412798,27
1689046158.291275,23
1689046158.3412797,22
1689046158.391281,21
1689046158.4412754,19
1689046158.4912794,16
1689046158.541279,13
1689046158.591275,12
1689046158.6412792,11
1689046158.6912763,27
1689046158.741275,59
1689046158.791275,78
1689046158.841275,73
1689046158.891275,65
1689046158.941274,59
1689046158.9912791,54
1689046159.0412784,53
1689046159.0912735,49
1689046159.1242797,41
1689046159.1742795,36
1689046159.224278,29
1689046159.2742743,25
1689046159.3242738,23
1689046159.3742738,22
1689046159.424274,20
1689046159.4742773,18
1689046159.524274,15
1689046159.5742776,13
1689046159.624274,12
1689046159.6742733,22
1689046159.7238402,53
1689046159.7738354,77
1689046159.8239307,76
1689046159.873931,67
1689046159.9239264,60
1689046159.9739296,55
1689046160.0239296,54
1689046160.073925,52
1689046160.1099253,44
1689046160.1599293,39
1689046160.2099295,31
1689046160.2599247,26
1689046160.3099294,24
1689046160.3599255,23
1689046160.4099255,22
1689046160.4599245,20
1689046160.509925,17
1689046160.560924,15
1689046160.6099246,16
1689046160.6599243,42
1689046160.7099235,72
1689046160.7604444,78
1689046160.8104045,69
1689046160.8604043,60
1689046160.9103997,54
1689046160.9604027,52
1689046161.0103989,53
1689046161.060401,48
1689046161.1104035,40
1689046161.1604042,32
1689046161.2103994,27
1689046161.2604036,25
1689046161.3224049,24
1689046161.3713996,23
1689046161.421399,20
1689046161.471405,18
1689046161.5205429,16
1689046161.5725427,32
1689046161.6225681,63
1689046161.6705685,79
1689046161.7215734,72
1689046161.7715716,60
1689046161.8345733,53
1689046161.8845675,53
1689046161.934568,54
1689046161.9845679,48
1689046162.0345666,39
1689046162.0845668,31
1689046162.1185665,27
1689046162.1695716,26
1689046162.2185667,25
1689046162.268571,25
1689046162.321567,24
1689046162.371566,21
1689046162.4225707,20
1689046162.4735663,39
1689046162.5225663,68
1689046162.5715659,79
1689046162.6215668,68
1689046162.6715708,56
1689046162.721567,50
1689046162.771571,51
1689046162.8215702,53
1689046162.8725662,48
1689046162.9215703,40
1689046162.9715655,31
1689046163.0215652,27
1689046163.0715697,25
1689046163.1095695,25
1689046163.1545653,25
1689046163.204565,24
1689046163.2545707,21
1689046163.305565,25
1689046163.3545692,49
1689046163.4055657,76
1689046163.4545643,76
1689046163.5045688,63
1689046163.555566,53
1689046163.6045687,49
1689046163.6545687,53
1689046163.7045686,52
1689046163.7545683,45
1689046163.8185637,36
1689046163.8685684,27
1689046163.9185646,25
1689046163.968568,25
1689046164.0195646,26
1689046164.0685682,24
1689046164.1105647,25
1689046164.151568,37
1689046164.2015676,65
1689046164.2515638,79
1689046164.301568,70
1689046164.354564,57
1689046164.4045675,50
1689046164.4545708,51
1689046164.5045686,54
1689046164.5545673,50
1689046164.6045628,40
1689046164.6545641,33
1689046164.7053597,28
1689046164.7553556,27
1689046164.8053594,27
1689046164.855359,27
1689046164.9053555,26
1689046164.955359,36
1689046165.0053554,62
1689046165.0544894,79
1689046165.104847,72
1689046165.137842,60
1689046165.1878424,54
1689046165.2378466,52
1689046165.287848,54
1689046165.3378417,53
1689046165.3878462,44
1689046165.437844,36
1689046165.4878423,30
1689046165.5378458,28
1689046165.5878413,28
1689046165.6378458,28
1689046165.6878474,27
1689046165.737842,34
1689046165.7878463,58
1689046165.8378456,77
1689046165.8878412,71
1689046165.9378452,59
1689046165.9878416,51
1689046166.037841,50
1689046166.0888414,51
1689046166.121845,47
1689046166.1718402,41
1689046166.221841,32
1689046166.2718408,24
1689046166.3228402,20
1689046166.3718398,19
1689046166.4218445,18
1689046166.4718401,16
1689046166.521476,20
1689046166.5714762,43
1689046166.622475,65
1689046166.6714795,61
1689046166.7214756,48
1689046166.7724695,39
1689046166.8216193,37
1689046166.8716192,39
1689046166.9216225,38
1689046166.971618,29
1689046167.0216186,20
1689046167.0716243,14
1689046167.1106224,13
1689046167.1546187,14
1689046167.205622,15
1689046167.2546175,15
1689046167.3046222,31
1689046167.3546174,53
1689046167.404472,59
1689046167.4547155,49
1689046167.5047185,38
1689046167.5547144,34
1689046167.6047142,40
1689046167.6547148,40
1689046167.7047164,35
1689046167.7547183,26
1689046167.8047142,20
1689046167.8547144,19
1689046167.9047253,20
1689046167.9547138,20
1689046168.0047133,30
1689046168.054714,58
1689046168.1047132,70
1689046168.143714,66
1689046168.1907175,57
1689046168.2407138,47
1689046168.2907135,45
1689046168.3407173,49
1689046168.390717,47
1689046168.4407122,39
1689046168.490717,31
1689046168.5407124,26
1689046168.5907168,26
1689046168.6407168,28
1689046168.6907127,28
1689046168.7407167,41
1689046168.7917163,67
1689046168.8417118,77
1689046168.8917162,72
1689046168.9417126,65
1689046168.9917161,56
1689046169.041712,52
1689046169.0917113,51
1689046169.1247168,46
1689046169.1797118,39
1689046169.2297158,35
1689046169.2797115,28
1689046169.338711,25
1689046169.3887157,25
1689046169.438712,24
1689046169.4887116,34
1689046169.538711,59
1689046169.588715,74
1689046169.6387177,72
1689046169.6887147,67
1689046169.7387106,59
1689046169.7892222,51
1689046169.8394077,48
1689046169.8894086,45
1689046169.9394078,38
1689046169.989404,31
1689046170.0392466,25
1689046170.0894046,23
1689046170.1224048,23
1689046170.1784046,23
1689046170.2284083,21
1689046170.2784035,30
1689046170.3284082,55
1689046170.3784044,73
1689046170.4284084,73
1689046170.478408,69
1689046170.5284083,60
1689046170.578404,51
1689046170.6284077,48
1689046170.678408,45
1689046170.7284079,39
1689046170.7784035,32
1689046170.8284085,26
1689046170.8784034,23
1689046170.9284072,23
1689046170.9784033,22
1689046171.028405,20
1689046171.0784075,18
1689046171.1114075,31
1689046171.1674032,53
1689046171.2174032,70
1689046171.2674072,69
1689046171.3224018,65
1689046171.3694031,58
1689046171.4194071,49
1689046171.4694064,46
1689046171.5194023,43
1689046171.570408,37
1689046171.6204023,30
1689046171.670406,25
1689046171.7204015,22
1689046171.7704022,21
1689046171.8204012,20
1689046171.8704019,18
1689046171.9204018,16
1689046171.9704056,17
1689046172.0204022,36
1689046172.070406,60
1689046172.1114016,65
1689046172.1584013,63
1689046172.2084007,59
1689046172.2584014,51
1689046172.3084002,45
1689046172.358405,43
1689046172.4084,40
1689046172.4584048,33
1689046172.5084012,27
1689046172.5584002,22
1689046172.6084008,20
1689046172.658112,19
1689046172.7081158,18
1689046172.758023,15
1689046172.823024,13
1689046172.8720179,24
1689046172.9240189,47
1689046172.9720192,59
1689046173.0220225,57
1689046173.0720186,54
1689046173.111024,48
1689046173.1560173,44
1689046173.2060182,42
1689046173.2560234,40
1689046173.3060184,36
1689046173.3560216,30
1689046173.4060178,25
1689046173.4560177,22
1689046173.5060167,21
1689046173.5560234,20
1689046173.606018,18
1689046173.656022,15
1689046173.706017,16
1689046173.7560217,37
1689046173.8060176,53
1689046173.8560212,58
1689046173.906021,56
1689046173.9560223,53
1689046174.0060174,47
1689046174.056021,44
1689046174.1060169,43
1689046174.1440172,40
1689046174.1920207,34
1689046174.2420166,29
1689046174.292018,25
1689046174.3420203,24
1689046174.392016,23
1689046174.4420235,20
1689046174.4920201,17
1689046174.5420158,15
1689046174.59202,18
1689046174.642016,38
1689046174.692016,58
1689046174.7420197,62
1689046174.7920194,59
1689046174.8420157,56
1689046174.8920195,51
1689046174.9420154,49
1689046174.9920192,48
1689046175.0420315,43
1689046175.092027,37
1689046175.1250277,31
1689046175.1750317,29
1689046175.2250311,27
1689046175.2750318,25
1689046175.3251288,24
1689046175.3749824,22
1689046175.4252253,20
1689046175.4749806,26
1689046175.5249865,47
1689046175.5749857,66
1689046175.624983,67
1689046175.675215,64
1689046175.7252717,60
1689046175.7742674,54
1689046175.839106,51
1689046175.888878,48
1689046175.938711,41
1689046175.988571,35
1689046176.0390842,29
1689046176.0885527,26
1689046176.122905,25
1689046176.1776943,23
1689046176.2278118,21
1689046176.2774398,19
1689046176.3394117,17
1689046176.3906844,15
1689046176.438722,26
1689046176.4889088,53
1689046176.5389335,70
1689046176.5893915,67
1689046176.6389697,62
1689046176.6889696,58
1689046176.7390363,53
1689046176.7889748,51
1689046176.8389688,48
1689046176.8889754,41
1689046176.938974,34
1689046176.9890378,28
1689046177.0389693,24
1689046177.0889683,23
1689046177.1419735,22
1689046177.191973,19
1689046177.241969,17
1689046177.2919726,15
1689046177.3419683,16
1689046177.3919723,34
1689046177.4423463,62
1689046177.491599,72
1689046177.5421667,66
1689046177.5922456,61
1689046177.6419003,56
1689046177.6915185,52
1689046177.742133,50
1689046177.7923367,46
1689046177.8418276,38
1689046177.8917828,31
1689046177.9418995,26
1689046177.9918995,24
1689046178.0419004,22
1689046178.0918994,21
1689046178.1259036,19
1689046178.1759007,17
1689046178.2258992,15
1689046178.275899,15
1689046178.3269036,24
1689046178.3759592,53
1689046178.4255307,75
1689046178.4755566,72
1689046178.5263143,62
1689046178.5762725,56
1689046178.625561,52
1689046178.6755579,51
1689046178.7258348,47
1689046178.7763033,40
1689046178.826032,32
1689046178.876252,26
1689046178.925723,23
1689046178.976129,23
1689046179.0263495,22
1689046179.0759258,20
1689046179.112447,18
1689046179.1583896,16
1689046179.209206,20
1689046179.2582483,44
1689046179.308461,70
1689046179.3585584,73
1689046179.4084795,63
1689046179.4587793,55
1689046179.509078,50
1689046179.5590649,50
1689046179.6086218,49
1689046179.6586218,43
1689046179.7086215,35
1689046179.7586262,28
1689046179.8086216,24
1689046179.858684,23
1689046179.908622,22
1689046179.9586213,21
1689046180.008621,19
1689046180.0586212,17
1689046180.1086211,27
1689046180.1416216,55
1689046180.1916208,70
1689046180.2422714,71
1689046180.291946,61
1689046180.3415248,54
1689046180.3923447,48
1689046180.4417338,48
1689046180.4918454,50
1689046180.5418146,42
1689046180.5921333,34
1689046180.6420834,27
1689046180.6919043,24
1689046180.741553,23
1689046180.791549,23
1689046180.841553,22
1689046180.891563,21
1689046180.9415627,21
1689046180.9915667,40
1689046181.0415623,67
1689046181.0915668,73
1689046181.1255658,63
1689046181.1805623,53
1689046181.230562,48
1689046181.280562,48
1689046181.339566,51
1689046181.3895617,46
1689046181.4395614,38
1689046181.4895654,30
1689046181.5395656,26
1689046181.5895607,24
1689046181.6395664,24
1689046181.6895652,24
1689046181.7395606,23
1689046181.7895648,26
1689046181.8395607,47
1689046181.8895614,72
1689046181.9395614,73
1689046181.9895644,61
1689046182.0405602,50
1689046182.0895643,47
1689046182.1225595,51
1689046182.1725605,52
1689046182.2227345,46
1689046182.2725918,39
1689046182.3235915,31
1689046182.3725963,27
1689046182.4225955,26
1689046182.4725962,26
1689046182.5225954,26
1689046182.572591,25
1689046182.6235948,36
1689046182.6725905,62
1689046182.7225907,75
1689046182.7725897,66
1689046182.8225913,53
1689046182.8725903,46
1689046182.9225943,48
1689046182.9725943,51
1689046183.0225892,47
1689046183.0729096,39
1689046183.1121275,31
1689046183.1571324,27
1689046183.2071342,25
1689046183.2571323,25
1689046183.3071287,26
1689046183.3571317,25
1689046183.4071279,35
1689046183.4571319,65
1689046183.5071278,76
1689046183.5571318,68
1689046183.6071317,56
1689046183.6571314,48
1689046183.7071276,49
1689046183.7571263,52
1689046183.8211267,48
1689046183.8701262,37
1689046183.9201307,30
1689046183.9701307,27
1689046184.020126,26
1689046184.0711305,27
1689046184.1121268,26
1689046184.1541305,29
1689046184.2041268,46
1689046184.2541304,71
1689046184.3041263,74
1689046184.3541267,62
1689046184.4041305,52
1689046184.454129,48
1689046184.5041263,51
1689046184.5541258,50
1689046184.6041262,43
1689046184.65413,35
1689046184.704126,29
1689046184.7541258,26
1689046184.8041308,26
1689046184.8541293,26
1689046184.9041293,25
1689046184.9541256,28
1689046185.0040812,49
1689046185.0542552,71
1689046185.104311,69
1689046185.1434963,55
1689046185.1933115,46
1689046185.2433882,41
1689046185.2932162,42
1689046185.3427398,41
1689046185.3926349,34
1689046185.4428055,23
1689046185.4928706,14
1689046185.5430498,10
1689046185.5927253,9
1689046185.6428633,10
1689046185.6931899,9
1689046185.7433212,8
1689046185.7933161,24
1689046185.843315,50
1689046185.8933156,58
1689046185.943315,49
1689046185.9933193,37
1689046186.0433192,32
1689046186.0933151,37
1689046186.126319,40
1689046186.1823196,38
1689046186.2323148,30
1689046186.2823148,22
1689046186.3403149,19
1689046186.3923185,20
1689046186.43948,21
1689046186.4894803,27
1689046186.5394793,47
1689046186.5896058,64
1689046186.6411467,62
1689046186.690247,50
1689046186.7402463,40
1689046186.790251,40
1689046186.8542519,44
1689046186.9042506,40
1689046186.9542453,32
1689046187.0042458,25
1689046187.0542455,23
1689046187.1042454,22
1689046187.1372457,22
1689046187.1872458,26
1689046187.2372494,48
1689046187.2872496,66
1689046187.3402455,77
1689046187.3902493,67
1689046187.4402497,58
1689046187.4902499,51
1689046187.5402446,51
1689046187.5902493,50
1689046187.640244,44
1689046187.690249,35
1689046187.7402453,29
1689046187.790249,26
1689046187.8402445,25
1689046187.8901904,28
1689046187.940196,45
1689046187.990196,73
1689046188.0401945,82
1689046188.0901947,76
1689046188.1241944,68
1689046188.17419,65
1689046188.2241943,56
1689046188.2741897,53
1689046188.3241894,49
1689046188.3741899,42
1689046188.4241898,34
1689046188.4741943,31
1689046188.52419,29
1689046188.5741897,29
1689046188.6251934,29
1689046188.675189,46
1689046188.7241933,73
1689046188.7741935,83
1689046188.8241932,79
1689046188.874193,73
1689046188.9241934,63
1689046188.9736032,55
1689046189.023523,53
1689046189.0735137,48
1689046189.1125147,40
1689046189.1595218,35
1689046189.2105148,28
1689046189.2601893,25
1689046189.3102763,25
1689046189.359948,23
1689046189.4099512,25
1689046189.4599512,44
1689046189.5099509,72
1689046189.5599508,78
1689046189.6099467,73
1689046189.6599467,67
1689046189.7099526,58
1689046189.7599516,51
1689046189.8099456,49
1689046189.8599503,43
1689046189.909946,36
1689046189.95995,29
1689046190.0099502,25
1689046190.0599456,23
1689046190.1099503,23
1689046190.1479514,21
1689046190.19595,20
1689046190.2459466,33
1689046190.2959447,60
1689046190.3569455,74
1689046190.4069445,69
1689046190.4569497,63
1689046190.5069458,55
1689046190.5569491,49
1689046190.6069493,47
1689046190.6569493,42
1689046190.7069452,35
1689046190.756949,28
1689046190.8069444,24
1689046190.856949,22
1689046190.906945,21
1689046190.9569492,19
1689046191.0069444,17
1689046191.0569484,30
1689046191.1069443,62
1689046191.145944,72
1689046191.1929483,69
1689046191.2429433,64
1689046191.292948,57
1689046191.342944,50
1689046191.3929434,47
1689046191.4429438,44
1689046191.492943,37
1689046191.5429475,30
1689046191.5929425,24
1689046191.642943,22
1689046191.6929436,21
1689046191.7429478,20
1689046191.7929473,18
1689046191.8428328,20
1689046191.8928366,41
1689046191.9428365,69
1689046191.9928327,74
1689046192.0428321,70
1689046192.0928314,64
1689046192.1268327,56
1689046192.1768363,52
1689046192.226836,49
1689046192.276832,45
1689046192.3268313,38
1689046192.3768318,30
1689046192.4268358,25
1689046192.4768312,23
1689046192.5268357,22
1689046192.576836,20
1689046192.6268353,18
1689046192.6768365,16
1689046192.7268312,24
1689046192.7768314,52
1689046192.8408313,73
1689046192.8908308,71
1689046192.9408307,65
1689046192.9908347,58
1689046193.040835,51
1689046193.0908349,48
1689046193.1238348,44
1689046193.1738346,40
1689046193.2238345,31
1689046193.2738304,24
1689046193.3238294,21
1689046193.3738296,19
1689046193.4238338,19
1689046193.4738302,17
1689046193.5238342,14
1689046193.573834,12
1689046193.6238337,11
1689046193.6748302,25
1689046193.723834,56
1689046193.7738402,73
1689046193.8238285,69
1689046193.8736665,63
1689046193.9240131,57
1689046193.974008,51
1689046194.0240128,48
1689046194.0740085,44
1689046194.1130135,37
1689046194.1570144,32
1689046194.2070086,25
1689046194.2570078,22
1689046194.3070087,21
1689046194.3570125,20
1689046194.4070082,19
1689046194.4570086,16
1689046194.507008,14
1689046194.557012,12
1689046194.6070082,20
1689046194.657197,53
1689046194.7074144,72
1689046194.7573879,72
1689046194.8219373,64
1689046194.870938,55
1689046194.9209378,50
1689046194.9709332,49
1689046195.0209324,45
1689046195.0709326,38
1689046195.112937,30
1689046195.1549375,26
1689046195.2049327,22
1689046195.254937,21
1689046195.3049383,21
1689046195.3579328,19
1689046195.407932,17
1689046195.4579377,15
1689046195.5089366,14
1689046195.5579362,29
1689046195.6079319,64
1689046195.6579332,76
1689046195.707932,69
1689046195.7581992,60
1689046195.8084393,53
1689046195.8583055,50
1689046195.908305,50
1689046195.9583101,46
1689046196.0083048,39
1689046196.058309,30
1689046196.108305,24
1689046196.1413143,22
1689046196.191308,22
1689046196.2413085,22
1689046196.2912564,21
1689046196.3412561,19
1689046196.3912578,17
1689046196.4412518,20
1689046196.4912558,43
1689046196.5413938,72
1689046196.591398,75
1689046196.640398,64
1689046196.691398,54
1689046196.7413976,49
1689046196.7910302,50
1689046196.855034,48
1689046196.9050298,40
1689046196.955029,32
1689046197.0050292,26
1689046197.0550342,23
1689046197.1050293,23
1689046197.1380296,23
1689046197.1880286,23
1689046197.2375731,21
1689046197.2882724,22
1689046197.3413508,40
1689046197.391356,68
1689046197.4413517,74
1689046197.491351,62
1689046197.5413554,51
1689046197.5913513,45
1689046197.6413512,47
1689046197.6913502,48
1689046197.7413504,42
1689046197.791352,34
1689046197.84135,26
1689046197.8913548,22
1689046197.9413552,21
1689046197.99135,22
1689046198.0413504,22
1689046198.0913546,20
1689046198.1243508,23
1689046198.17635,37
1689046198.2263541,66
1689046198.2743518,74
1689046198.324354,63
1689046198.3743546,50
1689046198.4243503,44
1689046198.4743543,43
1689046198.524349,45
1689046198.5735033,40
1689046198.6235166,25
1689046198.6735127,12
1689046198.723517,3
1689046198.7735138,0
1689046198.8235126,0
1689046198.874517,1
1689046198.9235175,0
1689046198.975516,2
1689046199.0265124,30
1689046199.0735128,59
1689046199.1125162,60
1689046199.1575158,50
1689046199.207511,34
1689046199.2575161,24
1689046199.3075118,29
1689046199.357517,37
1689046199.4075112,34
1689046199.4575171,25
1689046199.5075119,15
1689046199.5575168,9
1689046199.6075153,8
1689046199.657515,10
1689046199.707523,16
1689046199.7575147,44
1689046199.8075118,66
1689046199.8575149,67
1689046199.9075108,53
1689046199.9575148,37
1689046200.0075104,32
1689046200.0575144,41
1689046200.1075099,46
1689046200.1405103,40
1689046200.190514,33
1689046200.2405102,23
1689046200.2905095,17
1689046200.3405106,16
1689046200.390514,18
1689046200.4405088,36
1689046200.4905136,68
1689046200.540514,86
1689046200.5905156,81
1689046200.6405096,68
1689046200.6905136,56
1689046200.7405133,53
1689046200.790509,56
1689046200.8405092,53
1689046200.8905132,43
1689046200.941509,34
1689046200.990513,28
1689046201.0405087,26
1689046201.0914032,27
1689046201.1244636,39
1689046201.1744635,58
1689046201.2244637,84
1689046201.275459,87
1689046201.3244634,79
1689046201.374459,68
1689046201.4244635,58
1689046201.4744592,56
1689046201.5244582,55
1689046201.574463,48
1689046201.624459,39
1689046201.6744645,31
1689046201.724463,28
1689046201.7744596,27
1689046201.824463,32
1689046201.8754582,53
1689046201.9254575,78
1689046201.9747925,83
1689046202.0254195,76
1689046202.0747242,68
1689046202.1137245,58
1689046202.1577232,54
1689046202.207724,52
1689046202.2577279,48
1689046202.3077233,40
1689046202.3577278,31
1689046202.4077277,28
1689046202.4577253,25
1689046202.5077238,29
1689046202.5582168,53
1689046202.6083071,72
1689046202.6579175,77
1689046202.7082415,72
1689046202.7582407,64
1689046202.8232594,55
1689046202.8722556,50
1689046202.922255,48
1689046202.9722552,41
1689046203.022259,33
1689046203.072303,28
1689046203.114297,26
1689046203.1553018,25
1689046203.205302,25
1689046203.2553148,28
1689046203.3044193,48
1689046203.3576176,71
1689046203.4078856,75
1689046203.4579098,69
1689046203.50733,61
1689046203.5578709,51
1689046203.608061,47
1689046203.6582327,45
1689046203.7074378,40
1689046203.758305,32
1689046203.8083107,26
1689046203.858305,23
1689046203.9083061,22
1689046203.9583094,21
1689046204.0083113,19
1689046204.0583053,24
1689046204.1083047,46
1689046204.1423054,69
1689046204.1923044,72
1689046204.242305,67
1689046204.2915974,60
1689046204.3418326,50
1689046204.3918326,46
1689046204.4418328,45
1689046204.491997,41
1689046204.5421982,35
1689046204.5921822,29
1689046204.6420155,26
1689046204.691743,27
1689046204.7416236,28
1689046204.7913842,27
1689046204.8556097,24
1689046204.9047477,20
1689046204.9562793,18
1689046205.0062795,17
1689046205.0562825,25
1689046205.1082788,53
1689046205.1422784,78
1689046205.1922839,81
1689046205.2422824,74
1689046205.292282,69
1689046205.3422797,61
1689046205.392277,55
1689046205.4416223,52
1689046205.4915495,46
1689046205.5420277,39
1689046205.5920277,32
1689046205.642027,27
1689046205.692023,26
1689046205.742023,25
1689046205.7920272,23
1689046205.8420224,20
1689046205.8920228,18
1689046205.9420218,18
1689046205.9920263,37
1689046206.0420213,66
1689046206.0920222,75
1689046206.125023,69
1689046206.175022,65
1689046206.2250268,58
1689046206.2750216,52
1689046206.3250263,50
1689046206.375027,46
1689046206.4250274,39
1689046206.4750257,31
1689046206.5250206,26
1689046206.5750213,23
1689046206.6250212,23
1689046206.6750214,21
1689046206.725025,20
1689046206.7750213,18
1689046206.825025,17
1689046206.876021,36
1689046206.9250252,65
1689046206.97502,75
1689046207.025021,68
1689046207.07502,61
1689046207.1140206,54
1689046207.1610253,50
1689046207.2110267,49
1689046207.2610207,44
1689046207.3110197,37
1689046207.3610203,29
1689046207.41102,24
1689046207.461024,22
1689046207.5110238,21
1689046207.5610235,19
1689046207.611024,17
1689046207.6610196,15
1689046207.7110198,13
1689046207.7610238,25
1689046207.826019,55
1689046207.8750193,75
1689046207.9250252,67
1689046207.9750183,59
1689046208.0250194,52
1689046208.0750198,48
1689046208.1140196,48
1689046208.161023,46
1689046208.2110188,37
1689046208.261019,29
1689046208.3110225,23
1689046208.3610191,20
1689046208.4110177,20
1689046208.4610226,19
1689046208.5110183,17
1689046208.5610223,15
1689046208.6110182,12
1689046208.6610224,17
1689046208.7110221,44
1689046208.7610176,71
1689046208.811017,71
1689046208.860536,60
1689046208.9112978,51
1689046208.961302,46
1689046209.0112972,48
1689046209.061297,47
1689046209.111302,40
1689046209.1493015,31
1689046209.1982994,26
1689046209.2483015,22
1689046209.2982962,20
1689046209.3562968,20
1689046209.4062977,19
1689046209.456297,17
1689046209.5062976,15
1689046209.556301,20
1689046209.6063008,46
1689046209.6563005,73
1689046209.7062967,72
1689046209.7563014,60
1689046209.8062963,49
1689046209.8563561,45
1689046209.9063528,48
1689046209.9564004,48
1689046210.0063958,40
1689046210.0554073,31
1689046210.1063964,24
1689046210.1443963,20
1689046210.1943967,19
1689046210.2444005,20
1689046210.2943962,20
1689046210.3443952,18
1689046210.3953953,22
1689046210.4452841,45
1689046210.4953954,71
1689046210.544395,70
1689046210.5943954,57
1689046210.6453934,46
1689046210.6953948,43
1689046210.7443898,48
1689046210.7943952,48
1689046210.8593907,38
1689046210.909395,30
1689046210.9593942,24
1689046211.0093946,21
1689046211.0583942,22
1689046211.1093893,23
1689046211.1413906,22
1689046211.192394,22
1689046211.2413943,38
1689046211.291394,65
1689046211.341394,73
1689046211.3934035,62
1689046211.441502,49
1689046211.4915018,44
1689046211.5415146,47
1689046211.5916173,49
1689046211.6416209,43
1689046211.691617,35
1689046211.741936,27
1689046211.7919421,23
1689046211.841774,22
1689046211.8920348,23
1689046211.9415567,22
1689046211.9914556,26
1689046212.042232,47
1689046212.0922368,71
1689046212.1262388,70
1689046212.1762328,62
1689046212.2262316,49
1689046212.2762318,43
1689046212.3262317,46
1689046212.3762317,48
1689046212.4262314,43
1689046212.4762309,35
1689046212.5262313,27
1689046212.5762312,23
1689046212.626231,22
1689046212.676231,24
1689046212.7262309,24
1689046212.776492,33
1689046212.8258474,58
1689046212.8759077,73
1689046212.9258473,65
1689046212.9758513,53
1689046213.0258484,45
1689046213.076847,46
1689046213.1138508,49
1689046213.158846,48
1689046213.2084622,41
1689046213.2585094,33
1689046213.3086812,26
1689046213.3591223,24
1689046213.408567,25
1689046213.4586227,26
1689046213.509205,28
1689046213.5584831,48
1689046213.6084175,71
1689046213.6586385,72
1689046213.7091405,61
1689046213.7586553,51
1689046213.8224218,47
1689046213.87257,51
1689046213.922639,48
1689046213.9725752,40
1689046214.0228364,33
1689046214.0730212,28
1689046214.1151254,26
1689046214.1560202,27
1689046214.2060163,27
1689046214.2560158,30
1689046214.3057692,47
1689046214.3591883,70
1689046214.4086375,70
1689046214.4589298,60
1689046214.5092082,52
1689046214.559205,49
1689046214.609203,50
1689046214.6592033,48
1689046214.708876,40
1689046214.7585497,33
1689046214.8085496,29
1689046214.8585467,28
1689046214.9085453,28
1689046214.9593575,28
1689046215.0092347,30
1689046215.0588095,48
1689046215.1090589,68
1689046215.141683,67
1689046215.191433,61
1689046215.2414985,53
1689046215.2923055,49
1689046215.3420444,49
1689046215.391627,48
1689046215.442182,41
1689046215.4923043,35
1689046215.54201,29
1689046215.5916588,26
1689046215.6421456,26
1689046215.691394,25
1689046215.7418804,22
1689046215.7916574,27
1689046215.8420103,46
1689046215.8920734,56
1689046215.941512,48
1689046215.992224,39
1689046216.0420995,32
1689046216.091497,31
1689046216.1258895,32
1689046216.1760533,30
1689046216.2255828,22
1689046216.2753928,14
1689046216.3271885,9
1689046216.3757067,8
1689046216.425959,9
1689046216.475433,8
1689046216.525433,11
1689046216.576101,30
1689046216.6257722,50
1689046216.6759982,53
1689046216.7253423,43
1689046216.7761092,34
1689046216.826097,32
1689046216.8762615,37
1689046216.9261737,37
1689046216.9758737,30
1689046217.0265749,22
1689046217.0756555,18
1689046217.1149042,19
1689046217.1585472,20
1689046217.2087278,19
1689046217.2590911,25
1689046217.3088498,50
1689046217.3591788,64
1689046217.408608,62
1689046217.459175,53
1689046217.5091808,43
1689046217.5591745,40
1689046217.608779,43
1689046217.6588986,41
1689046217.7086995,34
1689046217.7586381,27
1689046217.8237064,23
1689046217.8726377,23
1689046217.922642,24
1689046217.9726434,35
1689046218.022642,59
1689046218.0726366,75
1689046218.114702,72
1689046218.1569014,67
1689046218.2065277,58
1689046218.256684,52
1689046218.3071856,51
1689046218.358589,50
1689046218.409118,43
1689046218.4590068,36
1689046218.508958,30
1689046218.5591714,29
1689046218.6090765,29
1689046218.658827,34
1689046218.7091887,53
1689046218.75919,72
1689046218.809188,71
1689046218.859184,64
1689046218.909188,57
1689046218.9590285,49
1689046219.0090284,47
1689046219.0590284,44
1689046219.1090279,39
1689046219.1430323,31
1689046219.1930323,27
1689046219.243032,24
1689046219.293028,24
1689046219.343028,25
1689046219.3930318,40
1689046219.4430282,63
1689046219.4930317,70
1689046219.543029,65
1689046219.593033,60
1689046219.6430287,53
1689046219.6930282,48
1689046219.7427776,45
1689046219.7927775,40
1689046219.8427753,33
1689046219.893249,26
1689046219.9433265,23
1689046219.9932935,21
1689046220.0432997,20
1689046220.0932937,29
1689046220.1272936,50
1689046220.176293,59
1689046220.2262988,58
1689046220.2762942,55
1689046220.326298,50
1689046220.3762975,44
1689046220.4262927,42
1689046220.4762971,40
1689046220.5262997,34
1689046220.5762935,28
1689046220.6262977,23
1689046220.6762924,21
1689046220.726292,21
1689046220.7762923,20
1689046220.840293,22
1689046220.8902986,44
1689046220.940297,58
1689046220.9902966,56
1689046221.0402973,53
1689046221.0902913,49
1689046221.1230645,45
1689046221.1730042,44
1689046221.2230039,42
1689046221.2730038,38
1689046221.3260047,31
1689046221.3760037,27
1689046221.4260037,24
1689046221.4760015,23
1689046221.5259993,22
1689046221.5759983,20
1689046221.626,18
1689046221.6759992,17
1689046221.7280307,17
1689046221.777478,32
1689046221.82748,54
1689046221.875474,61
1689046221.9254773,56
1689046221.975473,53
1689046222.0254757,49
1689046222.075479,47
1689046222.1144738,46
1689046222.1784732,41
1689046222.2284772,35
1689046222.278477,30
1689046222.3284729,27
1689046222.3784719,26
1689046222.4284725,25
1689046222.478472,23
1689046222.5284727,21
1689046222.5784733,23
1689046222.6284766,40
1689046222.6784778,56
1689046222.7284722,56
1689046222.7784789,49
1689046222.8424716,44
1689046222.8924758,41
1689046222.942476,41
1689046222.9924726,40
1689046223.0424721,33
1689046223.092472,26
1689046223.1254756,21
1689046223.1754756,19
1689046223.2254755,17
1689046223.2754803,15
1689046223.3254714,13
1689046223.3754756,10
1689046223.4254718,13
1689046223.4774754,25
1689046223.5254753,51
1689046223.5754704,54
1689046223.625923,47
1689046223.676026,39
1689046223.726063,37
1689046223.776104,40
1689046223.8261085,40
1689046223.8762302,36
1689046223.9262335,28
1689046223.9762514,23
1689046224.0262523,21
1689046224.076247,21
1689046224.1152503,21
1689046224.160247,23
1689046224.2102466,42
1689046224.2602935,57
1689046224.3102887,56
1689046224.3602931,47
1689046224.410288,39
1689046224.460289,38
1689046224.5102928,43
1689046224.5602882,44
1689046224.610289,39
1689046224.6602926,32
1689046224.7103598,26
1689046224.7602892,24
1689046224.8242898,24
1689046224.8742921,28
1689046224.924288,46
1689046224.974288,68
1689046225.0242887,70
1689046225.0742881,61
1689046225.1152933,53
1689046225.157292,50
1689046225.207287,51
1689046225.2572932,53
1689046225.3072917,47
1689046225.3602285,40
1689046225.410229,32
1689046225.460236,28
1689046225.510233,26
1689046225.5602326,25
1689046225.6102328,27
1689046225.660229,47
1689046225.7102325,73
1689046225.760228,78
1689046225.8102279,70
1689046225.8602276,63
1689046225.9099483,57
1689046225.9594333,56
1689046226.0094347,54
1689046226.0594332,48
1689046226.1094375,40
1689046226.142439,32
1689046226.1924334,28
1689046226.2424343,25
1689046226.292438,25
1689046226.3424337,25
1689046226.3954332,40
1689046226.4424343,67
1689046226.4924326,77
1689046226.5430295,69
1689046226.593027,60
1689046226.6430247,54
1689046226.6930292,51
1689046226.7430282,51
1689046226.7930233,46
1689046226.8435152,38
1689046226.8933275,30
1689046226.9433322,24
1689046226.9933288,22
1689046227.0433285,22
1689046227.0926685,22
1689046227.1276743,36
1689046227.1776671,54
1689046227.2266674,75
1689046227.276669,71
1689046227.3276672,60
1689046227.3766713,52
1689046227.426674,49
1689046227.476671,51
1689046227.5266676,48
1689046227.576674,40
1689046227.6266665,33
1689046227.6766708,26
1689046227.7266667,24
1689046227.7766664,23
1689046227.8266704,23
1689046227.8776708,23
1689046227.9276674,35
1689046227.9766703,62
1689046228.0266657,75
1689046228.076666,67
1689046228.1156662,55
1689046228.1596658,50
1689046228.2096658,48
1689046228.25967,51
1689046228.3096697,48
1689046228.3596694,40
1689046228.4096694,33
1689046228.4596648,27
1689046228.5096645,24
1689046228.5596652,24
1689046228.6096663,24
1689046228.6596653,22
1689046228.709669,27
1689046228.759669,50
1689046228.809669,72
1689046228.8596652,68
1689046228.9096649,54
1689046228.9596643,45
1689046229.0096693,44
1689046229.0596685,48
1689046229.109664,46
1689046229.1436682,38
1689046229.1936646,32
1689046229.2436638,25
1689046229.2936642,21
1689046229.3436635,20
1689046229.393664,20
1689046229.444338,20
1689046229.4936676,21
1689046229.5436676,41
1689046229.5936632,67
1689046229.6436636,68
1689046229.6936636,54
1689046229.7436697,41
1689046229.7936628,38
1689046229.8436623,39
1689046229.8936622,41
1689046229.9442418,38
1689046229.993779,25
1689046230.0437822,17
1689046230.0937784,12
1689046230.1267786,10
1689046230.1767774,11
1689046230.226778,12
1689046230.276783,13
1689046230.3267822,30
1689046230.376782,60
1689046230.426777,70
1689046230.4767816,58
1689046230.5267766,42
1689046230.5767767,36
1689046230.626782,40
1689046230.6767778,44
1689046230.7267811,40
1689046230.776776,30
1689046230.8404212,20
1689046230.891224,13
1689046230.941053,13
1689046230.9910505,14
1689046231.0410478,26
1689046231.091054,56
1689046231.1240544,76
1689046231.174048,73
1689046231.2240524,63
1689046231.2740524,48
1689046231.3270485,40
1689046231.3780527,47
1689046231.4270492,48
1689046231.477052,40
1689046231.527052,29
1689046231.5770473,21
1689046231.6270478,17
1689046231.677052,17
1689046231.7280524,22
1689046231.7790468,45
1689046231.8280487,75
1689046231.8770516,79
1689046231.9270513,65
1689046231.977047,51
1689046232.0280473,47
1689046232.0770476,53
1689046232.1160462,56
1689046232.160047,52
1689046232.2100463,41
1689046232.2600465,33
1689046232.3100505,29
1689046232.3600786,29
1689046232.4100783,31
1689046232.4600797,52
1689046232.5100744,80
1689046232.5600736,95
1689046232.6100776,87
1689046232.6600788,76
1689046232.711078,68
1689046232.761074,64
1689046232.8250737,62
1689046232.8740726,52
1689046232.9240732,41
1689046232.9737098,34
1689046233.024278,30
1689046233.0742772,30
1689046233.116278,30
1689046233.1582768,35
1689046233.2082775,61
1689046233.2582767,87
1689046233.3082817,86
1689046233.3612814,76
1689046233.4112813,68
1689046233.4612894,59
1689046233.5112941,55
1689046233.561294,51
1689046233.6112952,43
1689046233.6612897,35
1689046233.71129,28
1689046233.76129,25
1689046233.8252897,24
1689046233.8742895,24
1689046233.924294,40
1689046233.974294,69
1689046234.0242894,78
1689046234.074294,69
1689046234.1162934,60
1689046234.1632886,55
1689046234.2132933,49
1689046234.263289,47
1689046234.313294,43
1689046234.3632889,35
1689046234.4132926,27
1689046234.4632888,23
1689046234.5142887,21
1689046234.563289,21
1689046234.6132925,21
1689046234.6632876,20
1689046234.7132878,24
1689046234.7632873,59
1689046234.8292882,77
1689046234.8772924,69
1689046234.9272878,59
1689046234.9772868,52
1689046235.0272877,49
1689046235.0772924,49
1689046235.1162915,43
1689046235.1612873,39
1689046235.211293,30
1689046235.2612872,25
1689046235.3112917,23
1689046235.3612864,23
1689046235.4112923,23
1689046235.461287,21
1689046235.5112908,20
1689046235.5612915,38
1689046235.6112907,67
1689046235.6612864,76
1689046235.7112923,68
1689046235.7612908,57
1689046235.8252864,50
1689046235.8752863,49
1689046235.9252908,48
1689046235.97529,41
1689046236.0252862,34
1689046236.0752857,27
1689046236.116293,24
1689046236.1582859,24
1689046236.20829,24
1689046236.258286,24
1689046236.3082895,22
1689046236.361285,20
1689046236.4112854,34
1689046236.461285,64
1689046236.5112891,76
1689046236.561285,68
1689046236.611289,55
1689046236.661285,47
1689046236.7112846,46
1689046236.7612846,47
1689046236.8112886,42
1689046236.8612845,33
1689046236.9112883,22
1689046236.9612844,14
1689046237.0112886,10
1689046237.0612843,10
1689046237.111288,11
1689046237.1442885,11
1689046237.194284,9
1689046237.244284,14
1689046237.2942832,41
1689046237.3442876,69
1689046237.3942835,66
1689046237.4442887,51
1689046237.4942837,39
1689046237.5442872,36
1689046237.5942836,41
1689046237.6442873,41
1689046237.6942832,33
1689046237.7442837,21
1689046237.794283,12
1689046237.8442934,8
1689046237.894283,8
1689046237.9442868,10
1689046237.9942827,11
1689046238.0442867,28
1689046238.094282,60
1689046238.1282823,73
1689046238.1782823,71
1689046238.228282,56
1689046238.2782884,42
1689046238.3282866,38
1689046238.3792825,47
1689046238.428282,45
1689046238.4782858,37
1689046238.5282822,25
1689046238.578286,16
1689046238.6282856,14
1689046238.6782858,15
1689046238.729282,19
1689046238.7792857,40
1689046238.8282814,72
1689046238.8782854,79
1689046238.928281,65
1689046238.9782856,50
1689046239.028286,43
1689046239.0782847,48
1689046239.1172864,52
1689046239.164281,48
1689046239.2142868,35
1689046239.2642853,24
1689046239.3142846,17
1689046239.3642797,16
1689046239.4142842,17
1689046239.4642844,30
1689046239.5142841,63
1689046239.5642798,87
1689046239.614284,81
1689046239.6642797,69
1689046239.7142837,60
1689046239.7642791,58
1689046239.8142838,61
1689046239.8642836,58
1689046239.914279,47
1689046239.9642794,37
1689046240.0142834,30
1689046240.0642793,29
1689046240.1142833,29
1689046240.1522784,35
1689046240.2002845,50
1689046240.250279,81
1689046240.300279,88
1689046240.3612797,76
1689046240.411283,68
1689046240.4612787,60
1689046240.5112824,55
1689046240.5612795,52
1689046240.6112823,46
1689046240.661279,38
1689046240.7112827,30
1689046240.7612832,25
1689046240.8112822,24
1689046240.861277,25
1689046240.911282,34
1689046240.961277,61
1689046241.0112815,80
1689046241.0612817,74
1689046241.1112816,65
1689046241.164277,54
1689046241.2142766,50
1689046241.2642772,48
1689046241.3142812,44
1689046241.3642764,37
1689046241.4142811,29
1689046241.4642773,24
1689046241.5142808,22
1689046241.5642767,22
1689046241.6142807,21
1689046241.6642764,25
1689046241.7142756,47
1689046241.7637029,69
1689046241.8140469,68
1689046241.8640468,59
1689046241.914047,51
1689046241.9640427,46
1689046242.0140467,45
1689046242.0640426,43
1689046242.1140468,36
1689046242.1520476,29
1689046242.2020464,24
1689046242.2510424,21
1689046242.3010416,19
1689046242.361053,20
1689046242.4110467,19
1689046242.4610422,17
1689046242.5110462,23
1689046242.5610418,47
1689046242.611046,69
1689046242.6610417,65
1689046242.7110465,54
1689046242.7610412,46
1689046242.811046,42
1689046242.8610415,43
1689046242.911041,40
1689046242.9610415,33
1689046243.011046,25
1689046243.0610452,18
1689046243.1110451,15
1689046243.14504,14
1689046243.195041,14
1689046243.2450447,14
1689046243.2950418,12
1689046243.3450398,17
1689046243.3950448,40
1689046243.4450395,63
1689046243.4950445,60
1689046243.5450442,49
1689046243.59504,40
1689046243.6450446,38
1689046243.69504,40
1689046243.7450442,39
1689046243.7950392,32
1689046243.8450444,22
1689046243.8950438,15
1689046243.9450436,11
1689046243.995039,10
1689046244.0450394,10
1689046244.0950391,9
1689046244.1280394,14
1689046244.1800435,30
1689046244.2280402,57
1689046244.2780383,62
1689046244.328039,52
1689046244.378043,41
1689046244.4280386,36
1689046244.4790428,39
1689046244.528043,40
1689046244.5780509,35
1689046244.6280444,25
1689046244.6780427,18
1689046244.7280374,15
1689046244.7780378,14
1689046244.8280377,14
1689046244.8790371,21
1689046244.9290378,44
1689046244.977717,66
1689046245.0278747,64
1689046245.078122,52
1689046245.1171176,42
1689046245.1641235,40
1689046245.214123,43
1689046245.264117,44
1689046245.3141215,38
1689046245.3641217,29
1689046245.4141212,23
1689046245.464121,21
1689046245.5141163,21
1689046245.5641165,24
1689046245.614121,43
1689046245.6641166,69
1689046245.7141173,73
1689046245.764116,63
1689046245.8141208,52
1689046245.8641162,47
1689046245.9141204,48
1689046245.9641175,48
1689046246.01412,42
1689046246.0639846,34
1689046246.1139848,27
1689046246.1479797,25
1689046246.1979809,25
1689046246.2479806,26
1689046246.297984,35
1689046246.347984,61
1689046246.39798,78
1689046246.4479835,73
1689046246.4979796,63
1689046246.5479836,55
1689046246.59798,50
1689046246.6479785,48
1689046246.6979837,45
1689046246.7479792,38
1689046246.797979,30
1689046246.8479807,25
1689046246.897978,23
1689046246.9479828,23
1689046246.9979792,23
1689046247.047978,31
1689046247.097983,56
1689046247.1309786,77
1689046247.1809845,77
1689046247.2309787,68
1689046247.280982,61
1689046247.3309786,54
1689046247.3809822,50
1689046247.4309819,47
1689046247.480978,41
1689046247.530978,34
1689046247.580982,27
1689046247.6309779,24
1689046247.6809819,23
1689046247.7309775,23
1689046247.780982,22
1689046247.8309815,24
1689046247.8809774,44
1689046247.9309814,70
1689046247.9809816,73
1689046248.030977,64
1689046248.0809813,57
1689046248.116976,50
1689046248.1669824,48
1689046248.2169762,46
1689046248.266976,41
1689046248.3279767,35
1689046248.3779757,27
1689046248.4279764,23
1689046248.4779918,22
1689046248.527977,22
1689046248.5779762,21
1689046248.6279805,20
1689046248.6779804,18
1689046248.72998,28
1689046248.7779806,56
1689046248.827976,72
1689046248.87798,66
1689046248.9279754,56
1689046248.9779797,48
1689046249.0279765,44
1689046249.0779755,43
1689046249.1169753,40
1689046249.1619756,35
1689046249.2119796,26
1689046249.261975,20
1689046249.311974,17
1689046249.3619747,16
1689046249.4119797,16
1689046249.461974,16
1689046249.5119784,14
1689046249.5619745,17
1689046249.6119788,46
1689046249.6619744,67
1689046249.7119746,65
1689046249.761974,53
1689046249.811978,43
1689046249.8619792,39
1689046249.911978,40
1689046249.961974,39
1689046250.0119774,31
1689046250.061973,22
1689046250.1119778,16
1689046250.1449773,13
1689046250.194974,13
1689046250.2449787,14
1689046250.294973,15
1689046250.3449733,13
1689046250.3949726,25
1689046250.444978,55
1689046250.494973,72
1689046250.544977,64
1689046250.5949728,52
1689046250.6449733,43
1689046250.6949732,43
1689046250.7449727,46
1689046250.7949774,42
1689046250.8449724,34
1689046250.8949773,25
1689046250.9449775,19
1689046250.9949722,18
1689046251.0449762,19
1689046251.094976,22
1689046251.129976,39
1689046251.1839895,62
1689046251.2339852,78
1689046251.283985,71
1689046251.3449852,59
1689046251.3969846,50
1689046251.4449885,51
1689046251.494989,53
1689046251.5449886,47
1689046251.5949843,38
1689046251.6449883,29
1689046251.695984,25
1689046251.7449882,24
1689046251.794984,25
1689046251.844988,28
1689046251.8949838,49
1689046251.9449847,78
1689046251.9949837,82
1689046252.0449877,71
1689046252.0949833,61
1689046252.1289835,54
1689046252.1789875,52
1689046252.228988,51
1689046252.2789829,47
1689046252.3309846,40
1689046252.3789823,31
1689046252.4289823,26
1689046252.4791875,24
1689046252.5292664,24
1689046252.5791519,24
1689046252.631147,32
1689046252.6801517,59
1689046252.7291517,79
1689046252.779147,74
1689046252.829164,64
1689046252.878809,56
1689046252.9290473,50
1689046252.9790416,49
1689046253.028773,46
1689046253.078333,39
1689046253.11747,30
1689046253.1622875,25
1689046253.2118254,21
1689046253.2617276,19
1689046253.312217,18
1689046253.3620236,17
1689046253.4119005,20
1689046253.461658,42
1689046253.5123463,65
1689046253.5613415,65
1689046253.612142,55
1689046253.662225,47
1689046253.7122297,42
1689046253.7622252,42
1689046253.8122249,40
1689046253.8622317,35
1689046253.9122245,27
1689046253.9612246,20
1689046254.0122552,16
1689046254.061694,16
1689046254.1121192,16
1689046254.1457815,15
1689046254.1953955,16
1689046254.2459373,29
1689046254.2962625,52
1689046254.3462634,61
1689046254.3962626,52
1689046254.4453816,42
1689046254.495916,37
1689046254.545974,36
1689046254.5959156,38
1689046254.64592,34
1689046254.6959202,27
1689046254.7459264,19
1689046254.7958124,14
1689046254.8452303,12
1689046254.8961267,11
1689046254.9459145,11
1689046254.9953141,10
1689046255.045824,19
1689046255.0959566,44
1689046255.1292737,59
1689046255.184824,55
1689046255.2352257,44
1689046255.2850018,37
1689046255.3462417,35
1689046255.3962357,38
1689046255.4462357,36
1689046255.4953442,28
1689046255.5453432,20
1689046255.5958638,14
1689046255.6462803,13
1689046255.6956253,14
1689046255.745629,15
1689046255.795627,23
1689046255.845629,46
1689046255.8956287,63
1689046255.945624,58
1689046255.9956248,47
1689046256.0456288,39
1689046256.0956244,39
1689046256.1286278,43
1689046256.1846287,43
1689046256.2346284,40
1689046256.2846293,31
1689046256.345625,25
1689046256.3956282,22
1689046256.4456284,23
1689046256.495628,26
1689046256.5456276,46
1689046256.5956235,69
1689046256.6456285,71
1689046256.6956275,63
1689046256.7456234,54
1689046256.7956235,49
1689046256.8456223,51
1689046256.8956277,51
1689046256.9456275,45
1689046256.9956224,38
1689046257.045674,33
1689046257.0955877,30
1689046257.1285884,30
1689046257.1785884,30
1689046257.2285883,40
1689046257.2785876,63
1689046257.329588,79
1689046257.378592,74
1689046257.428588,65
1689046257.4785917,57
1689046257.528587,53
1689046257.5785873,53
1689046257.6285875,50
1689046257.678587,42
1689046257.7285876,36
1689046257.7785914,30
1689046257.8285875,28
1689046257.8785913,28
1689046257.928591,28
1689046257.978587,40
1689046258.0305877,65
1689046258.0785859,79
1689046258.1175878,74
1689046258.1625867,68
1689046258.212586,61
1689046258.2625904,55
1689046258.3125865,54
1689046258.3626313,51
1689046258.4125862,44
1689046258.4625862,37
1689046258.5125954,31
1689046258.5626347,28
1689046258.6126282,27
1689046258.662629,26
1689046258.7126343,26
1689046258.762635,42
1689046258.8126287,67
1689046258.8626287,72
1689046258.912629,66
1689046258.9626288,58
1689046259.012634,52
1689046259.062632,49
1689046259.112803,48
1689046259.1458268,44
1689046259.1961071,38
1689046259.2461116,31
1689046259.2961078,27
1689046259.3461118,25
1689046259.3961072,24
1689046259.4461071,23
1689046259.4955835,21
1689046259.545397,22
1689046259.5962698,40
1689046259.6462746,62
1689046259.6962748,64
1689046259.7456553,54
1689046259.795807,46
1689046259.8458107,41
1689046259.8958108,40
1689046259.945703,40
1689046259.995858,34
1689046260.0458572,27
1689046260.0958571,21
1689046260.1288583,17
1689046260.1848707,17
1689046260.2348623,17
1689046260.2848575,17
1689046260.334858,15
1689046260.3848572,27
1689046260.434857,51
1689046260.4848573,62
1689046260.5348616,55
1689046260.584857,44
1689046260.6348617,38
1689046260.6848564,37
1689046260.7348614,38
1689046260.784856,34
1689046260.8348565,26
1689046260.8848608,18
1689046260.9348557,13
1689046260.9848564,11
1689046261.0348613,12
1689046261.0848558,13
1689046261.1178565,14
1689046261.1678603,22
1689046261.217856,47
1689046261.2678556,62
1689046261.3288558,57
1689046261.3788605,45
1689046261.4288611,39
1689046261.4808552,39
1689046261.5288596,41
1689046261.5788555,39
1689046261.6288557,30
1689046261.678855,23
1689046261.7288554,19
1689046261.778859,18
1689046261.8288543,18
1689046261.8788545,19
1689046261.9312954,34
1689046261.9798746,59
1689046262.0298932,69
1689046262.0798924,62
1689046262.1182098,52
1689046262.1623988,47
1689046262.2124739,45
1689046262.2624037,46
1689046262.3123994,44
1689046262.3623989,36
1689046262.4130182,30
1689046262.4629817,26
1689046262.512981,25
1689046262.5629811,26
1689046262.6129854,26
1689046262.6628397,44
1689046262.7128348,69
1689046262.7629325,75
1689046262.8269255,68
1689046262.8769262,57
1689046262.9269276,51
1689046262.9769258,50
1689046263.0269263,49
1689046263.0769298,43
1689046263.117926,37
1689046263.1599298,33
1689046263.2099257,30
1689046263.2599256,29
1689046263.3099294,29
1689046263.362925,32
1689046263.4129255,56
1689046263.4629295,75
1689046263.5129304,76
1689046263.5629244,67
1689046263.6129248,60
1689046263.6629248,52
1689046263.712929,48
1689046263.7629244,46
1689046263.8129287,40
1689046263.8629246,32
1689046263.9129257,26
1689046263.9629242,22
1689046264.0129244,21
1689046264.0629244,21
1689046264.112924,20
1689046264.1509235,27
1689046264.1989284,48
1689046264.2489247,72
1689046264.2989278,73
1689046264.348924,65
1689046264.398928,57
1689046264.4489236,50
1689046264.4989245,47
1689046264.5489275,45
1689046264.5989244,40
1689046264.6489227,32
1689046264.6989286,25
1689046264.7489233,22
1689046264.7989285,21
1689046264.8489223,21
1689046264.8989224,20
1689046264.9489226,19
1689046264.9989269,29
1689046265.0487728,57
1689046265.0987914,75
1689046265.1327844,70
1689046265.1827843,63
1689046265.232843,55
1689046265.28279,49
1689046265.332785,47
1689046265.3827899,45
1689046265.4327884,40
1689046265.4827838,32
1689046265.5327885,26
1689046265.5827851,22
1689046265.6327882,21
1689046265.6827881,21
1689046265.732784,21
1689046265.782788,19
1689046265.8327878,18
1689046265.8827837,34
1689046265.9327877,63
1689046265.982783,74
1689046266.0327895,69
1689046266.0827875,58
1689046266.1187835,50
1689046266.1657875,46
1689046266.2157845,46
1689046266.2657883,43
1689046266.3157833,37
1689046266.365787,29
1689046266.4157827,23
1689046266.465782,20
1689046266.5156043,20
1689046266.56621,20
1689046266.6162055,20
1689046266.6662097,18
1689046266.71621,17
1689046266.7662098,30
1689046266.81621,59
1689046266.8662047,75
1689046266.9162104,66
1689046266.9662654,52
1689046267.0162053,43
1689046267.0662088,41
1689046267.1162097,44
1689046267.149204,40
1689046267.1992095,35
1689046267.2492044,26
1689046267.2992053,18
1689046267.349204,14
1689046267.39921,13
1689046267.449208,13
1689046267.4992166,13
1689046267.5492332,11
1689046267.5992281,17
1689046267.6492822,44
1689046267.6982782,69
1689046267.748846,67
1689046267.7989843,53
1689046267.848984,40
1689046267.898983,37
1689046267.9489791,41
1689046267.998979,42
1689046268.0489793,39
1689046268.09898,28
1689046268.1329854,19
1689046268.1829846,13
1689046268.2329836,12
1689046268.2829792,13
1689046268.3329833,14
1689046268.3829837,18
1689046268.4323752,43
1689046268.4823322,73
1689046268.5323315,75
1689046268.5823321,60
1689046268.632336,45
1689046268.6823313,41
1689046268.732331,46
1689046268.7823312,48
1689046268.8323357,42
1689046268.882331,32
1689046268.932399,24
1689046268.982846,19
1689046269.03285,19
1689046269.0828457,19
1689046269.118846,29
1689046269.1658497,46
1689046269.2158458,76
1689046269.2658448,81
1689046269.3158722,67
1689046269.366038,53
1689046269.416036,47
1689046269.466037,50
1689046269.5160313,53
1689046269.5660324,46
1689046269.616036,36
1689046269.6660361,27
1689046269.7160363,23
1689046269.7660308,22
1689046269.8157923,24
1689046269.865796,31
1689046269.915792,59
1689046269.965792,87
1689046270.0157912,86
1689046270.065797,72
1689046270.115791,61
1689046270.153791,55
1689046270.201791,55
1689046270.2517917,55
1689046270.3017905,50
1689046270.3522422,40
1689046270.4022772,31
1689046270.452275,26
1689046270.5022762,24
1689046270.5522761,24
1689046270.6013672,25
1689046270.651368,41
1689046270.7023704,74
1689046270.7513673,89
1689046270.8013718,84
1689046270.851367,72
1689046270.9013665,63
1689046270.952367,57
1689046271.001756,54
1689046271.0518792,49
1689046271.10188,40
1689046271.1358848,32
1689046271.1858795,28
1689046271.2358835,24
1689046271.285879,24
1689046271.3468788,24
1689046271.3968832,23
1689046271.4463513,37
1689046271.496347,66
1689046271.5463476,81
1689046271.5963478,72
1689046271.646346,62
1689046271.696348,55
1689046271.7463472,51
1689046271.7963462,50
1689046271.8463464,46
1689046271.8963504,38
1689046271.9473627,30
1689046271.9963508,25
1689046272.046346,23
1689046272.0963476,22
1689046272.1293452,22
1689046272.1793451,22
1689046272.2323468,22
1689046272.282346,40
1689046272.3333502,67
1689046272.3823457,74
1689046272.4323456,64
1689046272.482346,54
1689046272.532351,48
