timestamp,bvp
1689047622.335568,90
1689047622.3856103,88
1689047622.4356093,68
1689047622.4856045,55
1689047622.5356047,50
1689047622.5853288,55
1689047622.635066,59
1689047622.685065,53
1689047622.735065,42
1689047622.7850695,35
1689047622.8350656,29
1689047622.8850694,26
1689047622.9350662,24
1689047622.9850707,23
1689047623.0350692,21
1689047623.0850694,18
1689047623.135065,15
1689047623.1860695,16
1689047623.2360654,47
1689047623.285064,85
1689047623.32407,82
1689047623.369069,67
1689047623.4190645,48
1689047623.4690647,40
1689047623.5190685,45
1689047623.5690641,53
1689047623.619069,50
1689047623.6690876,39
1689047623.7190816,27
1689047623.769077,20
1689047623.8190765,16
1689047623.869077,15
1689047623.9191413,15
1689047623.9690826,14
1689047624.0190766,12
1689047624.069078,8
1689047624.1190805,16
1689047624.1700764,57
1689047624.219076,94
1689047624.2690756,88
1689047624.31908,67
1689047624.3520799,54
1689047624.4031096,51
1689047624.4520805,56
1689047624.5020757,62
1689047624.5520751,56
1689047624.602075,43
1689047624.6520765,32
1689047624.7020764,26
1689047624.7520802,22
1689047624.8020792,21
1689047624.8520758,20
1689047624.9030747,18
1689047624.969079,44
1689047625.019079,83
1689047625.0690744,89
1689047625.1192055,72
1689047625.16971,56
1689047625.2196443,50
1689047625.2696486,57
1689047625.3196487,63
1689047625.3526485,55
1689047625.402645,46
1689047625.452644,36
1689047625.5026443,29
1689047625.5526438,28
1689047625.602648,28
1689047625.6526484,28
1689047625.7026434,40
1689047625.7526445,78
1689047625.802644,103
1689047625.8526435,95
1689047625.9026444,80
1689047625.9526455,72
1689047626.0026476,73
1689047626.0526428,80
1689047626.1028976,77
1689047626.1523612,65
1689047626.202361,53
1689047626.257361,45
1689047626.3053675,43
1689047626.3383603,42
1689047626.3883653,40
1689047626.4403608,42
1689047626.4883647,75
1689047626.5383604,119
1689047626.5883648,127
1689047626.6384249,118
1689047626.6883597,112
1689047626.7383602,105
1689047626.7883599,100
1689047626.8383982,95
1689047626.8883643,62
1689047626.93836,55
1689047626.9883595,49
1689047627.0383596,45
1689047627.0883603,43
1689047627.1383593,40
1689047627.1883593,38
1689047627.2383592,40
1689047627.2883606,59
1689047627.3253632,77
1689047627.3723595,78
1689047627.4223633,75
1689047627.4723594,72
1689047627.5224085,67
1689047627.5723653,63
1689047627.6223586,60
1689047627.6724157,55
1689047627.7227504,48
1689047627.7728198,42
1689047627.822816,39
1689047627.8728151,36
1689047627.9228156,34
1689047627.9728196,32
1689047628.0228193,29
1689047628.0728147,26
1689047628.122886,24
1689047628.1729202,23
1689047628.2229204,22
1689047628.27292,22
1689047628.3229244,33
1689047628.3559208,58
1689047628.4059196,71
1689047628.4559245,72
1689047628.5059245,68
1689047628.5559244,66
1689047628.6059783,63
1689047628.6559196,60
1689047628.7059236,57
1689047628.7559192,51
1689047628.8059206,43
1689047628.8559241,39
1689047628.9059188,36
1689047628.9559193,33
1689047629.0059187,31
1689047629.0559208,29
1689047629.1059775,26
1689047629.1559186,24
1689047629.2058606,22
1689047629.255247,21
1689047629.305469,21
1689047629.3384686,21
1689047629.3884678,25
1689047629.4404721,44
1689047629.4884686,66
1689047629.5394716,69
1689047629.5894718,63
1689047629.639467,60
1689047629.6890812,57
1689047629.739726,54
1689047629.789726,52
1689047629.839724,46
1689047629.889724,40
1689047629.9397247,36
1689047629.9897285,33
1689047630.0397246,31
1689047630.0897243,30
1689047630.1397243,28
1689047630.189724,26
1689047630.2397232,23
1689047630.2897243,22
1689047630.3257287,21
1689047630.3727229,21
1689047630.422723,20
1689047630.4727235,29
1689047630.522723,51
1689047630.5727236,65
1689047630.6228108,62
1689047630.6728497,57
1689047630.7228527,54
1689047630.7728522,51
1689047630.822848,51
1689047630.8728979,47
1689047630.9230213,40
1689047630.973025,34
1689047631.0221453,28
1689047631.0721452,25
1689047631.1221614,24
1689047631.1721773,22
1689047631.2221694,20
1689047631.2721696,18
1689047631.322248,16
1689047631.3552525,15
1689047631.4053068,14
1689047631.4553704,14
1689047631.505329,21
1689047631.5553324,43
1689047631.605334,63
1689047631.6553323,62
1689047631.7064354,56
1689047631.7554312,51
1689047631.805435,48
1689047631.855553,47
1689047631.9055166,46
1689047631.9555116,40
1689047632.005515,34
1689047632.0555701,29
1689047632.1056483,26
1689047632.1556454,25
1689047632.205673,24
1689047632.255673,23
1689047632.3057556,20
1689047632.3398266,19
1689047632.389824,17
1689047632.439823,16
1689047632.4898217,19
1689047632.539822,40
1689047632.5898225,60
1689047632.6393454,61
1689047632.689398,52
1689047632.7395155,46
1689047632.789516,45
1689047632.8396635,48
1689047632.8896885,48
1689047632.9396868,42
1689047632.9896898,36
1689047633.0396898,31
1689047633.0896854,28
1689047633.1396859,27
1689047633.1896899,26
1689047633.239685,25
1689047633.289691,23
1689047633.3256898,24
1689047633.372686,34
1689047633.422685,57
1689047633.472685,68
1689047633.5226908,63
1689047633.5726871,56
1689047633.6226857,52
1689047633.6726856,51
1689047633.722689,53
1689047633.7726839,50
1689047633.8226864,43
1689047633.8726847,38
1689047633.922684,34
1689047633.9726899,32
1689047634.0226882,31
1689047634.0726879,30
1689047634.122684,29
1689047634.1725173,41
1689047634.2225158,67
1689047634.2725153,76
1689047634.3225138,70
1689047634.3565164,65
1689047634.4065185,62
1689047634.4565184,57
1689047634.5065184,56
1689047634.5565143,53
1689047634.6065185,45
1689047634.6565146,39
1689047634.7065184,34
1689047634.7565775,31
1689047634.80652,29
1689047634.856514,27
1689047634.9065144,26
1689047634.956514,23
1689047635.0065129,23
1689047635.0565183,39
1689047635.1065185,74
1689047635.1565173,77
1689047635.2065125,71
1689047635.2605133,67
1689047635.3085144,62
1689047635.342513,59
1689047635.3925138,57
1689047635.4425123,52
1689047635.4925177,43
1689047635.5425165,36
1689047635.5925174,31
1689047635.6425161,28
1689047635.6925125,27
1689047635.7425134,26
1689047635.7929792,24
1689047635.8424006,22
1689047635.892595,20
1689047635.942595,22
1689047635.9925938,43
1689047636.0425978,72
1689047636.092595,77
1689047636.1425982,70
1689047636.1925988,65
1689047636.242595,61
1689047636.292594,58
1689047636.3255975,56
1689047636.3757062,52
1689047636.436782,44
1689047636.484711,37
1689047636.5347054,32
1689047636.5847049,30
1689047636.6340506,28
1689047636.6850498,26
1689047636.734051,23
1689047636.7840543,20
1689047636.834051,19
1689047636.884897,18
1689047636.934897,17
1689047636.9848967,25
1689047637.0348928,52
1689047637.0848966,77
1689047637.1343517,76
1689047637.184355,68
1689047637.2343519,63
1689047637.2844138,59
1689047637.325353,57
1689047637.367409,55
1689047637.4173515,49
1689047637.4703512,40
1689047637.5203505,34
1689047637.570351,30
1689047637.6203496,28
1689047637.6703496,27
1689047637.7203772,25
1689047637.7704694,23
1689047637.8203874,20
1689047637.8703883,18
1689047637.920387,17
1689047637.9703908,18
1689047638.020391,42
1689047638.070387,71
1689047638.1203902,77
1689047638.170387,69
1689047638.22039,61
1689047638.270386,57
1689047638.3203902,56
1689047638.353386,55
1689047638.4033866,53
1689047638.4533896,45
1689047638.5033855,38
1689047638.5533895,31
1689047638.603387,28
1689047638.6533904,27
1689047638.703385,26
1689047638.7533844,24
1689047638.8033888,22
1689047638.8533852,20
1689047638.9033866,18
1689047638.9533887,23
1689047639.003385,48
1689047639.0533853,75
1689047639.1033847,75
1689047639.1533842,65
1689047639.2033856,58
1689047639.2533886,55
1689047639.303385,55
1689047639.3363862,53
1689047639.3863852,49
1689047639.4363859,40
1689047639.4864528,33
1689047639.536384,28
1689047639.586384,26
1689047639.6363828,26
1689047639.686383,25
1689047639.7363877,23
1689047639.7863874,20
1689047639.8373835,18
1689047639.8873873,19
1689047639.9383826,40
1689047639.9873848,70
1689047640.0374563,78
1689047640.0873828,68
1689047640.137383,59
1689047640.1873822,55
1689047640.237383,54
1689047640.2873826,54
1689047640.3253865,47
1689047640.3704455,41
1689047640.4203827,34
1689047640.4704454,28
1689047640.5203862,25
1689047640.5703955,24
1689047640.620384,22
1689047640.6703825,20
1689047640.7203817,17
1689047640.770452,15
1689047640.8203864,14
1689047640.8703868,27
1689047640.9203856,57
1689047640.970382,76
1689047641.0203822,69
1689047641.0703855,59
1689047641.1203809,52
1689047641.1703804,51
1689047641.2203853,51
1689047641.270389,48
1689047641.3203871,40
1689047641.3553855,32
1689047641.4033813,27
1689047641.453381,24
1689047641.5033827,22
1689047641.5533803,22
1689047641.6033843,20
1689047641.6533818,18
1689047641.7033808,15
1689047641.753381,19
1689047641.803384,43
1689047641.8535602,66
1689047641.9035566,64
1689047641.9535584,52
1689047642.0035558,44
1689047642.053558,43
1689047642.103555,47
1689047642.153616,46
1689047642.203558,39
1689047642.253554,31
1689047642.3035576,25
1689047642.3375578,23
1689047642.3875573,23
1689047642.4375577,23
1689047642.4875586,22
1689047642.5375533,20
1689047642.5885532,27
1689047642.6375537,52
1689047642.687553,70
1689047642.737555,65
1689047642.787557,55
1689047642.8375545,49
1689047642.8875568,48
1689047642.9376223,52
1689047642.9875546,49
1689047643.0375535,41
1689047643.0875535,33
1689047643.137557,28
1689047643.1875563,26
1689047643.2376354,25
1689047643.292552,24
1689047643.3265522,22
1689047643.3765576,29
1689047643.4375522,55
1689047643.4875565,77
1689047643.5375562,72
1689047643.5875506,63
1689047643.6375554,58
1689047643.6875515,55
1689047643.7375517,56
1689047643.787552,52
1689047643.8376143,43
1689047643.887552,36
1689047643.9375513,30
1689047643.987551,28
1689047644.0375526,26
1689047644.0875516,25
1689047644.1375544,22
1689047644.1875513,26
1689047644.2375562,50
1689047644.2925515,76
1689047644.3265543,73
1689047644.3765502,68
1689047644.4375553,63
1689047644.4855506,57
1689047644.5355544,55
1689047644.5855498,53
1689047644.6355505,46
1689047644.6855495,38
1689047644.73655,32
1689047644.7855506,28
1689047644.835617,27
1689047644.8855538,25
1689047644.9355533,22
1689047644.98555,18
1689047645.0375547,25
1689047645.08755,53
1689047645.1375508,76
1689047645.1875517,74
1689047645.237548,68
1689047645.2935529,62
1689047645.3265495,56
1689047645.3765512,54
1689047645.4375525,52
1689047645.487554,44
1689047645.5375488,37
1689047645.587553,31
1689047645.637552,28
1689047645.6875494,26
1689047645.7375484,25
1689047645.7875478,22
1689047645.837552,19
1689047645.8875475,16
1689047645.9385486,22
1689047645.9885516,48
1689047646.0375514,75
1689047646.0875528,76
1689047646.1375477,69
1689047646.1875474,65
1689047646.2375479,60
1689047646.2875493,57
1689047646.326552,55
1689047646.370552,51
1689047646.4205508,43
1689047646.4705472,36
1689047646.5205474,31
1689047646.570546,29
1689047646.6205473,27
1689047646.670624,25
1689047646.7205462,23
1689047646.7705467,20
1689047646.8205504,17
1689047646.8705459,15
1689047646.9205468,19
1689047646.9705503,50
1689047647.0205462,75
1689047647.0705462,80
1689047647.1205463,74
1689047647.170551,71
1689047647.220546,65
1689047647.2705495,59
1689047647.3205497,55
1689047647.3545454,49
1689047647.4045465,44
1689047647.454546,36
1689047647.5045445,30
1689047647.554551,26
1689047647.6045492,24
1689047647.6545444,21
1689047647.7045488,18
1689047647.7545447,15
1689047647.8045497,12
1689047647.854546,10
1689047647.9045455,9
1689047647.9545448,7
1689047648.004548,7
1689047648.0545487,6
1689047648.104549,12
1689047648.154546,40
1689047648.2045455,72
1689047648.2545445,78
1689047648.3045437,71
1689047648.3375432,67
1689047648.3875477,64
1689047648.4385462,60
1689047648.4875433,57
1689047648.5375457,52
1689047648.5875459,43
1689047648.6375432,36
1689047648.687544,29
1689047648.7375426,26
1689047648.7876034,24
1689047648.837547,22
1689047648.8875446,20
1689047648.9375432,16
1689047648.9875436,13
1689047649.0375443,11
1689047649.0875416,10
1689047649.137547,9
1689047649.1875463,9
1689047649.2375417,12
1689047649.2905424,36
1689047649.3265421,71
1689047649.3715417,82
1689047649.421543,78
1689047649.4715426,69
1689047649.5216095,66
1689047649.5715456,61
1689047649.6215427,58
1689047649.671541,55
1689047649.721542,47
1689047649.7715414,40
1689047649.8215463,33
1689047649.871541,28
1689047649.921603,26
1689047649.9715447,24
1689047650.0215418,21
1689047650.0715418,18
1689047650.121541,14
1689047650.1715405,10
1689047650.2215414,8
1689047650.2715404,6
1689047650.3215399,9
1689047650.3545408,34
1689047650.4045446,59
1689047650.4545407,80
1689047650.5045402,74
1689047650.5545409,66
1689047650.6045463,61
1689047650.6545439,57
1689047650.7045393,56
1689047650.754539,53
1689047650.80454,46
1689047650.85454,38
1689047650.9045398,30
1689047650.9545434,26
1689047651.0045388,24
1689047651.054543,22
1689047651.104539,20
1689047651.1545439,17
1689047651.2045438,15
1689047651.2545428,13
1689047651.3045392,12
1689047651.3375385,15
1689047651.3895438,36
1689047651.437538,67
1689047651.4875426,86
1689047651.537539,80
1689047651.5875425,70
1689047651.637538,64
1689047651.6875443,61
1689047651.737539,60
1689047651.788542,57
1689047651.8385386,49
1689047651.8885417,40
1689047651.9385383,34
1689047651.9886107,30
1689047652.038538,27
1689047652.0885365,26
1689047652.1385386,24
1689047652.1885376,21
1689047652.2385373,18
1689047652.2885408,15
1689047652.326599,20
1689047652.371541,41
1689047652.4215367,75
1689047652.4715421,83
1689047652.5215364,73
1689047652.5715368,63
1689047652.621537,57
1689047652.6715362,56
1689047652.7215374,57
1689047652.7715366,53
1689047652.8215365,45
1689047652.8715377,37
1689047652.9215415,31
1689047652.9715369,28
1689047653.02154,26
1689047653.0715399,24
1689047653.1215377,23
1689047653.1715367,20
1689047653.2215395,17
1689047653.2715356,26
1689047653.3215358,62
1689047653.3570395,82
1689047653.40404,80
1689047653.4540405,69
1689047653.5040395,59
1689047653.5540352,55
1689047653.6040337,55
1689047653.6540387,56
1689047653.704038,50
1689047653.7540393,40
1689047653.8040342,33
1689047653.8540337,28
1689047653.9040341,27
1689047653.9540396,26
1689047654.0040379,25
1689047654.0540378,23
1689047654.1050334,21
1689047654.154035,24
1689047654.2040358,50
1689047654.2600338,78
1689047654.3100333,77
1689047654.3431196,65
1689047654.3930385,59
1689047654.454101,55
1689047654.5040326,57
1689047654.5540345,57
1689047654.604033,49
1689047654.6540923,40
1689047654.7040334,34
1689047654.7540321,30
1689047654.8040328,29
1689047654.8540368,29
1689047654.9040365,28
1689047654.9540327,26
1689047655.0040326,24
1689047655.0540364,35
1689047655.1040325,65
1689047655.154033,82
1689047655.2040324,75
1689047655.2740319,63
1689047655.3240356,55
1689047655.3570325,57
1689047655.407032,57
1689047655.4570315,51
1689047655.5080354,42
1689047655.5580316,34
1689047655.607094,30
1689047655.657096,28
1689047655.707036,28
1689047655.757117,27
1689047655.807224,25
1689047655.8574204,22
1689047655.9075108,28
1689047655.9575074,54
1689047656.0075102,77
1689047656.0575104,73
1689047656.10751,61
1689047656.1575685,52
1689047656.2075098,49
1689047656.2575102,49
1689047656.3075097,46
1689047656.3415062,38
1689047656.3915107,32
1689047656.4415054,23
1689047656.4915054,18
1689047656.5415058,16
1689047656.5915096,16
1689047656.641518,14
1689047656.6915092,11
1689047656.7415094,6
1689047656.7915049,7
1689047656.8415048,33
1689047656.8915093,61
1689047656.9415045,60
1689047656.9915087,47
1689047657.0415053,38
1689047657.0915084,35
1689047657.1415083,38
1689047657.1915083,40
1689047657.241504,33
1689047657.2965033,23
1689047657.3305085,14
1689047657.380504,12
1689047657.438503,9
1689047657.4885035,11
1689047657.5385098,12
1689047657.5885077,9
1689047657.6385045,20
1689047657.6895075,46
1689047657.7385073,62
1689047657.7885036,55
1689047657.8385031,40
1689047657.8882358,29
1689047657.9382114,33
1689047657.988216,40
1689047658.0382173,40
1689047658.088212,30
1689047658.1382163,19
1689047658.1882122,13
1689047658.2382157,13
1689047658.2882109,15
1689047658.3272154,14
1689047658.371215,12
1689047658.4212153,23
1689047658.4712205,55
1689047658.521211,76
1689047658.5712109,70
1689047658.6212149,57
1689047658.6712148,46
1689047658.7212112,45
1689047658.77121,52
1689047658.8212152,51
1689047658.8712146,42
1689047658.9212153,32
1689047658.9712148,24
1689047659.021215,22
1689047659.0712144,23
1689047659.1212146,22
1689047659.171214,38
1689047659.22121,69
1689047659.2712138,85
1689047659.3212101,84
1689047659.3552148,74
1689047659.4052138,65
1689047659.4552095,57
1689047659.5052135,55
1689047659.5552099,54
1689047659.6052132,48
1689047659.6552093,39
1689047659.7057195,29
1689047659.7554202,23
1689047659.8052552,21
1689047659.855825,21
1689047659.9058294,26
1689047659.9559557,50
1689047660.005956,78
1689047660.055954,81
1689047660.1059582,73
1689047660.1559536,65
1689047660.205956,57
1689047660.2559536,52
1689047660.3059578,51
1689047660.338955,46
1689047660.3889537,40
1689047660.4389548,30
1689047660.488953,23
1689047660.5379574,21
1689047660.5889542,20
1689047660.638957,19
1689047660.688965,20
1689047660.739978,43
1689047660.7881982,74
1689047660.8382173,81
1689047660.8884752,74
1689047660.9524887,68
1689047661.0027182,57
1689047661.0528188,52
1689047661.1025395,49
1689047661.1526103,43
1689047661.202546,35
1689047661.252409,26
1689047661.302409,21
1689047661.3354044,20
1689047661.385408,19
1689047661.4384415,17
1689047661.4854422,13
1689047661.5354419,18
1689047661.585446,47
1689047661.6364462,78
1689047661.6866066,80
1689047661.736174,73
1689047661.7861586,67
1689047661.8361623,58
1689047661.8861632,52
1689047661.9361627,51
1689047661.9861622,46
1689047662.0361621,39
1689047662.086158,31
1689047662.136162,28
1689047662.186158,27
1689047662.236162,26
1689047662.2911618,22
1689047662.3281572,19
1689047662.3741615,17
1689047662.4247017,22
1689047662.4777057,51
1689047662.5277019,84
1689047662.5777056,87
1689047662.6277015,80
1689047662.6777015,74
1689047662.7277057,65
1689047662.7777052,58
1689047662.827706,55
1689047662.8777046,49
1689047662.9277055,40
1689047662.9777,31
1689047663.0276964,26
1689047663.077762,24
1689047663.1277838,22
1689047663.1777613,20
1689047663.2277572,17
1689047663.2777574,14
1689047663.3277571,12
1689047663.3777611,10
1689047663.4382956,17
1689047663.490295,50
1689047663.5383012,83
1689047663.588299,85
1689047663.638299,77
1689047663.6883006,71
1689047663.7382991,64
1689047663.7882938,58
1689047663.8382945,55
1689047663.8882947,48
1689047663.9382937,39
1689047663.9882982,30
1689047664.0382984,24
1689047664.0882957,22
1689047664.138294,21
1689047664.188294,18
1689047664.2382941,15
1689047664.2882977,12
1689047664.3272986,8
1689047664.3722932,6
1689047664.422299,5
1689047664.4722974,4
1689047664.5222933,14
1689047664.5722935,51
1689047664.622294,86
1689047664.672298,88
1689047664.7222972,77
1689047664.7722921,70
1689047664.8222923,64
1689047664.8722925,59
1689047664.922292,56
1689047664.972297,50
1689047665.022297,40
1689047665.072293,31
1689047665.1222963,25
1689047665.1722925,22
1689047665.2222998,21
1689047665.2722914,19
1689047665.3222961,15
1689047665.3552918,11
1689047665.4052958,8
1689047665.455297,5
1689047665.5052938,3
1689047665.555291,3
1689047665.605291,25
1689047665.655291,68
1689047665.705291,93
1689047665.7552915,86
1689047665.8052914,76
1689047665.8552914,69
1689047665.905291,63
1689047665.955295,60
1689047666.005295,57
1689047666.055295,48
1689047666.1052904,38
1689047666.1552947,29
1689047666.2052903,24
1689047666.2552898,22
1689047666.3052905,21
1689047666.3392897,20
1689047666.3892946,17
1689047666.4392903,13
1689047666.48929,9
1689047666.5392902,5
1689047666.5902941,3
1689047666.6412942,22
1689047666.6902943,66
1689047666.7398765,94
1689047666.7898753,88
1689047666.8398716,57
1689047666.8898747,53
1689047666.955875,50
1689047667.0058706,50
1689047667.0558743,47
1689047667.105875,42
1689047667.1558712,37
1689047667.2058756,33
1689047667.2558744,31
1689047667.3058743,30
1689047667.3398697,30
1689047667.3898706,29
1689047667.4408755,27
1689047667.4898741,25
1689047667.5398743,23
1689047667.5908742,23
1689047667.640869,39
1689047667.6898735,61
1689047667.7398694,66
1689047667.7898693,59
1689047667.8398695,53
1689047667.8898735,49
1689047667.9398735,48
1689047667.989873,49
1689047668.039869,46
1689047668.0898728,41
1689047668.1398728,36
1689047668.189873,32
1689047668.2398686,30
1689047668.2898684,29
1689047668.3288727,29
1689047668.3728676,29
1689047668.4228723,27
1689047668.472881,25
1689047668.5228736,23
1689047668.572868,33
1689047668.622872,55
1689047668.6728675,66
1689047668.7228718,62
1689047668.7728732,54
1689047668.822872,49
1689047668.8728676,47
1689047668.9228675,49
1689047668.9728673,48
1689047669.0228713,43
1689047669.0728717,38
1689047669.1228678,33
1689047669.1728783,31
1689047669.2228782,30
1689047669.2728784,30
1689047669.3228831,29
1689047669.356878,28
1689047669.4068832,27
1689047669.4568782,25
1689047669.5068777,32
1689047669.5568779,53
1689047669.6068783,67
1689047669.6568825,63
1689047669.7068782,54
1689047669.7568827,49
1689047669.806878,47
1689047669.8568773,48
1689047669.9068773,49
1689047669.9569583,46
1689047670.0062723,39
1689047670.0562634,34
1689047670.1062593,31
1689047670.1562636,31
1689047670.206259,31
1689047670.2612631,31
1689047670.3082626,30
1689047670.342258,27
1689047670.3922627,31
1689047670.442268,48
1689047670.4923718,64
1689047670.5424147,63
1689047670.5924108,54
1689047670.6425076,47
1689047670.692839,44
1689047670.742838,45
1689047670.792141,45
1689047670.8420749,40
1689047670.8920794,33
1689047670.9420764,25
1689047670.9920747,19
1689047671.0420783,16
1689047671.09208,16
1689047671.1420782,17
1689047671.192191,16
1689047671.2421927,14
1689047671.2971923,16
1689047671.3312514,39
1689047671.381189,52
1689047671.439189,61
1689047671.4891875,51
1689047671.5391877,40
1689047671.5892327,34
1689047671.6402812,39
1689047671.6893015,45
1689047671.7393131,44
1689047671.7893064,38
1689047671.8393056,31
1689047671.8894403,27
1689047671.9389503,27
1689047671.9890053,29
1689047672.041014,30
1689047672.0900135,42
1689047672.1390183,60
1689047672.189014,65
1689047672.239018,57
1689047672.2950177,46
1689047672.3280177,41
1689047672.3780136,43
1689047672.4400132,48
1689047672.4890134,46
1689047672.5390172,40
1689047672.589018,35
1689047672.6390579,31
1689047672.6900535,31
1689047672.7400582,32
1689047672.7890582,33
1689047672.8420675,44
1689047672.889149,61
1689047672.9399166,65
1689047672.9899163,58
1689047673.0399168,51
1689047673.0899148,47
1689047673.1409147,47
1689047673.1899157,48
1689047673.2399147,46
1689047673.2892892,40
1689047673.3282902,35
1689047673.3732932,33
1689047673.4232888,32
1689047673.473289,33
1689047673.5234683,32
1689047673.5731933,40
1689047673.623221,58
1689047673.6732178,63
1689047673.7233944,59
1689047673.7733994,54
1689047673.8233933,49
1689047673.873398,47
1689047673.923399,47
1689047673.9733975,46
1689047674.0231218,43
1689047674.0731175,39
1689047674.1231165,35
1689047674.173117,33
1689047674.2234373,33
1689047674.2734377,33
1689047674.3234408,40
1689047674.3564413,57
1689047674.4064412,60
1689047674.4564373,59
1689047674.5066285,55
1689047674.5560784,51
1689047674.6060822,47
1689047674.6560776,46
1689047674.70653,45
1689047674.756038,41
1689047674.8060389,38
1689047674.8560376,34
1689047674.9060385,33
1689047674.9560375,32
1689047675.0060415,32
1689047675.0560372,31
1689047675.1060417,37
1689047675.1560376,51
1689047675.2060413,58
1689047675.2560368,56
1689047675.3060377,54
1689047675.339037,50
1689047675.3890374,46
1689047675.4390364,44
1689047675.4890368,43
1689047675.5390413,40
1689047675.5890367,37
1689047675.6390405,34
1689047675.6890364,32
1689047675.7400403,31
1689047675.7890356,30
1689047675.83904,28
1689047675.8890405,27
1689047675.94104,29
1689047675.9890401,39
1689047676.04104,52
1689047676.0890353,57
1689047676.1390395,55
1689047676.1890361,51
1689047676.2390394,47
1689047676.2894137,44
1689047676.3284128,43
1689047676.3734174,41
1689047676.4234133,38
1689047676.4734187,35
1689047676.5234125,32
1689047676.573418,31
1689047676.6234179,30
1689047676.6734142,29
1689047676.7231617,28
1689047676.7731667,26
1689047676.8231623,25
1689047676.8731668,24
1689047676.9232495,33
1689047676.9739296,50
1689047677.0239298,55
1689047677.0729284,53
1689047677.1239305,51
1689047677.1739304,47
1689047677.2239294,44
1689047677.2735295,43
1689047677.3236196,42
1689047677.3563738,40
1689047677.406682,37
1689047677.456682,34
1689047677.5066774,32
1689047677.5566838,31
1689047677.6066818,30
1689047677.6566777,29
1689047677.7066827,28
1689047677.756243,27
1689047677.8062472,27
1689047677.856247,31
1689047677.906807,43
1689047677.9563692,57
1689047678.0059605,60
1689047678.0569568,58
1689047678.106969,56
1689047678.1569557,51
1689047678.206955,48
1689047678.2569606,47
1689047678.3065257,44
1689047678.34053,41
1689047678.3905265,40
1689047678.44053,38
1689047678.4905257,37
1689047678.54053,37
1689047678.5905294,36
1689047678.6405265,34
1689047678.6905305,32
1689047678.7400837,31
1689047678.7900789,30
1689047678.8400831,29
1689047678.8910785,31
1689047678.940202,41
1689047678.990786,57
1689047679.0407813,61
1689047679.0903924,59
1689047679.1407845,57
1689047679.1907856,55
1689047679.24078,53
1689047679.290779,51
1689047679.3297796,48
1689047679.3737807,46
1689047679.4236922,41
1689047679.4736876,38
1689047679.5236878,36
1689047679.5736918,35
1689047679.6236875,34
1689047679.6735795,32
1689047679.7237234,29
1689047679.7730553,27
1689047679.823056,26
1689047679.8730555,25
1689047679.93806,25
1689047679.9870596,27
1689047680.0370595,40
1689047680.0870593,53
1689047680.1370552,54
1689047680.1880548,51
1689047680.237055,49
1689047680.287062,46
1689047680.3290555,44
1689047680.3700607,43
1689047680.4202986,41
1689047680.473844,39
1689047680.5238473,35
1689047680.5738428,31
1689047680.6238472,30
1689047680.6738424,29
1689047680.723215,29
1689047680.7732148,28
1689047680.8231778,27
1689047680.8731825,27
1689047680.9231777,28
1689047680.9731772,28
1689047681.023182,35
1689047681.0731785,49
1689047681.1231816,58
1689047681.1731815,56
1689047681.2231765,53
1689047681.2731774,52
1689047681.323177,49
1689047681.3561811,48
1689047681.406181,47
1689047681.4563026,44
1689047681.5066814,40
1689047681.5566764,37
1689047681.6064816,34
1689047681.6574898,33
1689047681.70703,32
1689047681.7570276,31
1689047681.8075721,30
1689047681.857572,29
1689047681.907572,27
1689047681.957573,26
1689047682.007573,28
1689047682.057378,40
1689047682.1073756,53
1689047682.1573808,54
1689047682.2073762,60
1689047682.2573802,55
1689047682.3073804,50
1689047682.3403764,49
1689047682.3903797,49
1689047682.4399562,45
1689047682.489961,38
1689047682.539957,30
1689047682.5899608,25
1689047682.6399572,22
1689047682.6909566,20
1689047682.740534,20
1689047682.7905378,19
1689047682.8411205,17
1689047682.8901258,14
1689047682.9401212,12
1689047682.991125,18
1689047683.0411203,44
1689047683.091121,69
1689047683.1401198,70
1689047683.1901245,61
1689047683.2401197,54
1689047683.2901247,50
1689047683.3291204,50
1689047683.3731198,50
1689047683.4231193,45
1689047683.47312,40
1689047683.5231254,30
1689047683.57312,25
1689047683.6231244,22
1689047683.6731193,20
1689047683.7233033,19
1689047683.773269,18
1689047683.8231466,15
1689047683.8733597,13
1689047683.9233584,15
1689047683.9733698,43
1689047684.0233698,68
1689047684.0733678,69
1689047684.1233704,59
1689047684.1734214,50
1689047684.2234213,46
1689047684.2734165,47
1689047684.3234208,48
1689047684.3574157,45
1689047684.4074159,38
1689047684.4574208,30
1689047684.5074167,24
1689047684.5574203,21
1689047684.6074164,20
1689047684.6574173,19
1689047684.70742,19
1689047684.7574158,16
1689047684.807016,15
1689047684.8575766,30
1689047684.907574,54
1689047684.9575765,59
1689047685.007578,47
1689047685.057572,36
1689047685.107573,29
1689047685.157576,29
1689047685.2075722,32
1689047685.2575712,29
1689047685.307572,20
1689047685.3405716,10
1689047685.3905761,4
1689047685.4405708,0
1689047685.4905722,0
1689047685.5405757,0
1689047685.5905762,0
1689047685.6405714,0
1689047685.6905756,11
1689047685.740571,40
1689047685.7905717,51
1689047685.840156,42
1689047685.890736,30
1689047685.9407308,22
1689047685.9907353,26
1689047686.0407314,34
1689047686.0907357,34
1689047686.1407309,29
1689047686.190731,23
1689047686.24073,20
1689047686.2907345,20
1689047686.3297305,20
1689047686.3747346,22
1689047686.4247344,45
1689047686.4767432,72
1689047686.526743,77
1689047686.5767484,68
1689047686.626749,56
1689047686.6767435,49
1689047686.7267468,51
1689047686.776743,53
1689047686.826747,49
1689047686.8767424,42
1689047686.9267423,36
1689047686.9767478,32
1689047687.026746,30
1689047687.076742,30
1689047687.1267433,43
1689047687.1767418,60
1689047687.2267458,78
1689047687.276746,75
1689047687.3267415,62
1689047687.360742,54
1689047687.4107416,51
1689047687.4607453,52
1689047687.5107405,50
1689047687.5607452,44
1689047687.6107411,37
1689047687.6607456,30
1689047687.710745,26
1689047687.7607412,30
1689047687.8107457,49
1689047687.8607416,69
1689047687.9107454,70
1689047687.9607406,62
1689047688.0107405,56
1689047688.0607407,50
1689047688.1107452,47
1689047688.1607401,46
1689047688.2107444,41
1689047688.2607443,35
1689047688.3105702,29
1689047688.3435702,26
1689047688.3935742,25
1689047688.4455738,35
1689047688.4935694,56
1689047688.543569,66
1689047688.5935743,62
1689047688.643574,58
1689047688.6935737,52
1689047688.743638,47
1689047688.7935696,46
1689047688.8435695,43
1689047688.8935692,39
1689047688.9435685,32
1689047688.9935749,28
1689047689.0435731,26
1689047689.093573,25
1689047689.1435692,28
1689047689.193569,45
1689047689.2435732,61
1689047689.2935731,61
1689047689.3295686,58
1689047689.3775728,57
1689047689.4275725,52
1689047689.4775727,46
1689047689.5275724,45
1689047689.5775676,41
1689047689.6275682,36
1689047689.6775672,31
1689047689.727568,28
1689047689.7775724,26
1689047689.827572,24
1689047689.877572,22
1689047689.9275677,20
1689047689.9775717,18
1689047690.027568,29
1689047690.0775676,51
1689047690.1275673,62
1689047690.1775713,59
1689047690.2275712,57
1689047690.277567,52
1689047690.3275716,47
1689047690.3605719,46
1689047690.410571,44
1689047690.460571,40
1689047690.510571,35
1689047690.5605676,31
1689047690.6108458,28
1689047690.6608458,27
1689047690.7108414,25
1689047690.7608411,23
1689047690.810847,21
1689047690.8608415,19
1689047690.9108458,18
1689047690.9608426,17
1689047691.0108452,16
1689047691.0608416,21
1689047691.1108453,40
1689047691.1608405,61
1689047691.2108412,63
1689047691.2608411,59
1689047691.3108456,56
1689047691.3438444,50
1689047691.3938422,48
1689047691.4438443,48
1689047691.4928393,47
1689047691.5439224,41
1689047691.5929227,38
1689047691.6429272,35
1689047691.692923,34
1689047691.742928,32
1689047691.7939281,30
1689047691.8429265,28
1689047691.8939908,26
1689047691.9438746,25
1689047691.9933717,38
1689047692.0433714,59
1689047692.0933719,69
1689047692.1433713,67
1689047692.1933773,66
1689047692.243372,61
1689047692.2943711,56
1689047692.3303711,54
1689047692.3773756,52
1689047692.4273715,46
1689047692.4773753,40
1689047692.527372,36
1689047692.5773757,32
1689047692.6273718,30
1689047692.6773715,28
1689047692.7273705,26
1689047692.7773747,23
1689047692.8273706,21
1689047692.8773751,22
1689047692.9273705,40
1689047692.9773707,62
1689047693.027371,66
1689047693.0773766,62
1689047693.1273756,60
1689047693.17737,55
1689047693.2273703,51
1689047693.276808,49
1689047693.3273542,44
1689047693.3603492,39
1689047693.410355,35
1689047693.4603508,30
1689047693.5103536,27
1689047693.5603535,26
1689047693.6104286,24
1689047693.6604288,22
1689047693.71043,19
1689047693.760429,17
1689047693.8104289,16
1689047693.860429,20
1689047693.9104288,41
1689047693.9604237,64
1689047694.0104284,66
1689047694.060424,61
1689047694.110424,58
1689047694.160428,53
1689047694.2104237,50
1689047694.2654235,49
1689047694.3144274,43
1689047694.3464227,37
1689047694.396423,33
1689047694.4554274,29
1689047694.5054235,26
1689047694.5554276,24
1689047694.6054275,23
1689047694.6554284,22
1689047694.7054276,20
1689047694.755422,19
1689047694.8054268,18
1689047694.8554232,21
1689047694.9085937,40
1689047694.9585989,57
1689047695.008593,70
1689047695.0585976,65
1689047695.108594,60
1689047695.1585977,55
1689047695.2085977,52
1689047695.2585971,50
1689047695.308593,45
1689047695.3415923,40
1689047695.3915923,36
1689047695.4415972,32
1689047695.491597,29
1689047695.5415921,26
1689047695.5915272,24
1689047695.6417756,22
1689047695.6917796,20
1689047695.741776,18
1689047695.7917795,18
1689047695.842781,30
1689047695.8913152,56
1689047695.9413154,69
1689047695.9913146,63
1689047696.0413153,56
1689047696.0913205,51
1689047696.141315,48
1689047696.191319,47
1689047696.2413197,44
1689047696.2913141,38
1689047696.3303146,31
1689047696.374314,28
1689047696.4243188,25
1689047696.4743145,24
1689047696.5243185,24
1689047696.5743182,23
1689047696.6243184,22
1689047696.6743186,21
1689047696.7243187,27
1689047696.774318,54
1689047696.8243177,70
1689047696.8743138,68
1689047696.9248528,63
1689047696.9748528,57
1689047697.0248575,51
1689047697.0748575,49
1689047697.1248572,49
1689047697.1748536,44
1689047697.2248573,37
1689047697.2748575,31
1689047697.3248563,28
1689047697.3588567,27
1689047697.4088538,27
1689047697.4588568,26
1689047697.508857,25
1689047697.5588567,23
1689047697.6088517,34
1689047697.6588564,59
1689047697.7088525,74
1689047697.7588563,68
1689047697.8088524,59
1689047697.858856,53
1689047697.9088562,49
1689047697.9588559,50
1689047698.0088513,48
1689047698.0588522,41
1689047698.108852,34
1689047698.1588557,28
1689047698.2088518,25
1689047698.2588513,24
1689047698.3088508,24
1689047698.3418553,24
1689047698.3928556,23
1689047698.4418511,32
1689047698.4918501,56
1689047698.5418508,71
1689047698.5918508,65
1689047698.641855,56
1689047698.69185,49
1689047698.7428615,47
1689047698.7918549,49
1689047698.8418498,46
1689047698.8918543,37
1689047698.9418504,25
1689047698.9918547,16
1689047699.041854,10
1689047699.091854,7
1689047699.1418498,5
1689047699.1918538,2
1689047699.2438498,5
1689047699.297849,29
1689047699.330849,46
1689047699.3808537,46
1689047699.4418485,38
1689047699.4889748,26
1689047699.5390859,20
1689047699.5891452,23
1689047699.639087,27
1689047699.6890812,25
1689047699.739086,20
1689047699.7900858,14
1689047699.839085,10
1689047699.889081,10
1689047699.9390848,10
1689047699.9890847,13
1689047700.0390806,32
1689047700.0890806,53
1689047700.1390812,56
1689047700.1890805,47
1689047700.2390802,34
1689047700.2890806,27
1689047700.3300843,31
1689047700.3720841,36
1689047700.4220853,36
1689047700.47508,30
1689047700.525084,23
1689047700.5750837,19
1689047700.625081,18
1689047700.6750839,18
1689047700.7250836,22
1689047700.775084,47
1689047700.8250837,70
1689047700.8750796,73
1689047700.9390833,65
1689047700.9890795,51
1689047701.0390832,46
1689047701.089079,48
1689047701.139083,50
1689047701.1890783,45
1689047701.2390828,38
1689047701.2890825,32
1689047701.33008,30
1689047701.372079,29
1689047701.4230826,29
1689047701.4750788,39
1689047701.5250785,66
1689047701.5750835,79
1689047701.6250827,77
1689047701.6750782,70
1689047701.725078,60
1689047701.7750816,53
1689047701.8250773,52
1689047701.8750784,50
1689047701.925082,44
1689047701.9750779,38
1689047702.0250814,31
1689047702.0750818,28
1689047702.1250815,28
1689047702.1750813,29
1689047702.2250772,44
1689047702.2750814,67
1689047702.3250816,75
1689047702.3580823,72
1689047702.4080772,68
1689047702.4580767,59
1689047702.5080807,51
1689047702.5580769,49
1689047702.6080804,48
1689047702.6580806,43
1689047702.7080803,36
1689047702.7580814,30
1689047702.8080804,26
1689047702.8588052,25
1689047702.9088094,25
1689047702.958088,31
1689047703.0080926,52
1689047703.0580883,72
1689047703.1080878,74
1689047703.158093,69
1689047703.208093,62
1689047703.2580879,54
1689047703.308092,51
1689047703.3420923,49
1689047703.3920882,48
1689047703.4420872,40
1689047703.492092,34
1689047703.5420923,29
1689047703.5920923,28
1689047703.642093,27
1689047703.693092,29
1689047703.743092,45
1689047703.7920933,65
1689047703.8420916,68
1689047703.8920875,65
1689047703.9420915,59
1689047703.9920874,51
1689047704.0420916,48
1689047704.0920868,47
1689047704.1420908,43
1689047704.1920867,37
1689047704.2421134,32
1689047704.2921124,28
1689047704.3311129,26
1689047704.3751166,26
1689047704.4251132,24
1689047704.4751165,29
1689047704.5251129,49
1689047704.5751164,66
1689047704.6251168,68
1689047704.6751137,64
1689047704.725112,59
1689047704.775116,51
1689047704.825115,49
1689047704.8751175,48
1689047704.9251122,42
1689047704.9751499,36
1689047705.025571,31
1689047705.0755649,28
1689047705.12557,27
1689047705.1755693,25
1689047705.2255652,24
1689047705.275149,35
1689047705.3252246,59
1689047705.358224,66
1689047705.408225,65
1689047705.4582243,60
1689047705.508228,54
1689047705.5582242,48
1689047705.6082282,47
1689047705.6582232,45
1689047705.7092278,40
1689047705.758224,34
1689047705.808223,29
1689047705.8582237,26
1689047705.9082234,26
1689047705.9582229,25
1689047706.0082233,24
1689047706.0582225,38
1689047706.108227,61
1689047706.1592233,69
1689047706.2092273,66
1689047706.2592268,61
1689047706.3092225,54
1689047706.3422267,49
1689047706.3922226,49
1689047706.4432266,47
1689047706.492223,40
1689047706.5422263,34
1689047706.5932224,29
1689047706.642227,27
1689047706.692222,26
1689047706.7422218,25
1689047706.7922235,27
1689047706.8422236,46
1689047706.8922217,68
1689047706.9422257,72
1689047706.9922216,67
1689047707.042227,63
1689047707.0922256,55
1689047707.1422207,50
1689047707.192288,48
1689047707.2426002,43
1689047707.2925963,36
1689047707.330901,30
1689047707.375674,26
1689047707.4254613,24
1689047707.475456,22
1689047707.5256846,21
1689047707.5751584,19
1689047707.6251168,17
1689047707.6758528,26
1689047707.725176,53
1689047707.7751763,72
1689047707.8251753,69
1689047707.8751798,64
1689047707.9251795,58
1689047707.9751797,52
1689047708.0251749,49
1689047708.0757875,45
1689047708.1255474,39
1689047708.1755476,31
1689047708.2255516,24
1689047708.278551,21
1689047708.3285465,19
1689047708.3615465,17
1689047708.4114056,15
1689047708.461493,13
1689047708.5114863,10
1689047708.5614853,8
1689047708.611243,7
1689047708.6613972,7
1689047708.7115417,12
1689047708.7615426,39
1689047708.8115416,70
1689047708.8615425,76
1689047708.9115422,69
1689047708.961541,63
1689047709.011638,57
1689047709.0626929,54
1689047709.1126807,52
1689047709.1626759,46
1689047709.2126808,38
1689047709.2626765,29
1689047709.3126771,23
1689047709.345677,21
1689047709.3956811,20
1689047709.4456766,18
1689047709.4956753,16
1689047709.545479,13
1689047709.5954669,11
1689047709.6454666,10
1689047709.695466,20
1689047709.745466,52
1689047709.795467,76
1689047709.8454673,73
1689047709.895466,64
1689047709.9454665,57
1689047709.9954655,51
1689047710.0454664,50
1689047710.0956912,49
1689047710.1449769,42
1689047710.1949747,34
1689047710.2449791,26
1689047710.2949748,22
1689047710.3309748,20
1689047710.3779793,19
1689047710.427979,18
1689047710.477975,17
1689047710.5279753,15
1689047710.5779753,15
1689047710.627974,32
1689047710.677974,64
1689047710.7279744,77
1689047710.7779744,69
1689047710.8279734,59
1689047710.8779743,51
1689047710.9289756,48
1689047710.9779735,48
1689047711.028974,43
1689047711.077974,34
1689047711.1279733,25
1689047711.1779742,20
1689047711.2279775,17
1689047711.2779741,16
1689047711.3279727,16
1689047711.3619802,15
1689047711.4119728,15
1689047711.4629726,21
1689047711.5119772,47
1689047711.5619771,73
1689047711.6119735,74
1689047711.661973,65
1689047711.7119732,57
1689047711.7619767,54
1689047711.8119767,56
1689047711.8629725,54
1689047711.9119723,46
1689047711.9619725,38
1689047712.0119715,32
1689047712.0619764,28
1689047712.1119723,27
1689047712.1619716,27
1689047712.2119763,28
1689047712.2619736,42
1689047712.3119721,67
1689047712.345971,76
1689047712.3949754,71
1689047712.444971,60
1689047712.4949756,51
1689047712.5449712,50
1689047712.594975,53
1689047712.6449704,50
1689047712.6949706,42
1689047712.7449715,34
1689047712.794975,28
1689047712.8449712,25
1689047712.894971,25
1689047712.9449706,25
1689047712.9959698,33
1689047713.0449705,56
1689047713.0949745,71
1689047713.144971,65
1689047713.1949704,53
1689047713.2449706,44
1689047713.3019698,43
1689047713.334979,46
1689047713.3839738,46
1689047713.4419703,40
1689047713.4919736,29
1689047713.5429692,23
1689047713.5919752,19
1689047713.6419694,18
1689047713.6919687,18
1689047713.7419693,20
1689047713.7939734,37
1689047713.8419747,59
1689047713.8919754,51
1689047713.9429688,38
1689047713.9919682,26
1689047714.0419686,21
1689047714.0939682,23
1689047714.1419687,22
1689047714.1919725,16
1689047714.241973,7
1689047714.2979724,0
1689047714.3309724,0
1689047714.380968,0
1689047714.4419682,0
1689047714.4919722,0
1689047714.5439684,15
1689047714.592968,37
1689047714.642967,36
1689047714.6934552,22
1689047714.7436562,8
1689047714.7933965,3
1689047714.8434882,10
1689047714.8934877,18
1689047714.9434886,18
1689047714.9934883,14
1689047715.0434916,9
1689047715.093492,5
1689047715.143489,2
1689047715.1934917,10
1689047715.2444875,40
1689047715.2984912,65
1689047715.331491,59
1689047715.3814912,49
1689047715.443284,34
1689047715.493279,27
1689047715.5432794,35
1689047715.5932848,40
1689047715.6432798,36
1689047715.6932793,29
1689047715.7432847,23
1689047715.793281,20
1689047715.8442783,20
1689047715.895279,40
1689047715.9442787,72
1689047715.993283,85
1689047716.0432787,77
1689047716.0932786,65
1689047716.143279,55
1689047716.1933851,53
1689047716.2431793,56
1689047716.2932038,53
1689047716.3326244,47
1689047716.3760614,42
1689047716.426763,36
1689047716.4767623,33
1689047716.5267632,43
1689047716.576763,75
1689047716.6267688,89
1689047716.6767666,86
1689047716.7267637,78
1689047716.7767677,67
1689047716.8267627,59
1689047716.8767664,57
1689047716.9267616,56
1689047716.9767625,50
1689047717.0267622,42
1689047717.0767674,36
1689047717.1267617,32
1689047717.1767657,37
1689047717.2264552,59
1689047717.2763314,81
1689047717.3263278,83
1689047717.359327,77
1689047717.4093263,72
1689047717.4593313,62
1689047717.5093312,54
1689047717.5595326,53
1689047717.609532,50
1689047717.6595323,43
1689047717.7095294,36
1689047717.7595289,30
1689047717.8095279,27
1689047717.8595328,27
1689047717.9095318,28
1689047717.9595275,45
1689047718.009532,74
1689047718.0595279,75
1689047718.1095319,70
1689047718.1595323,62
1689047718.2095313,53
1689047718.2655313,49
1689047718.3125317,47
1689047718.3465273,41
1689047718.396531,37
1689047718.446527,31
1689047718.4965272,26
1689047718.547531,25
1689047718.5965314,24
1689047718.646527,25
1689047718.6965306,40
1689047718.7465305,64
1689047718.7965267,72
1689047718.8465302,68
1689047718.8965263,61
1689047718.960527,52
1689047719.0105302,48
1689047719.0605304,46
1689047719.1105318,40
1689047719.1605256,34
1689047719.2105303,29
1689047719.2655253,25
1689047719.3125298,24
1689047719.3465247,23
1689047719.3965297,22
1689047719.4465268,21
1689047719.4965253,19
1689047719.5465307,17
1689047719.5965297,16
1689047719.6465292,15
1689047719.6965249,22
1689047719.7468312,50
1689047719.7968256,75
1689047719.846308,76
1689047719.8968623,69
1689047719.9468641,63
1689047719.9968643,58
1689047720.0468626,57
1689047720.0958624,55
1689047720.1468635,49
1689047720.1968672,41
1689047720.246862,36
1689047720.296862,32
1689047720.331862,30
1689047720.3798628,29
1689047720.428862,27
1689047720.4788618,25
1689047720.5288625,22
1689047720.579863,21
1689047720.6298614,37
1689047720.6798656,66
1689047720.7288618,80
1689047720.7788656,75
1689047720.8288612,70
1689047720.8794973,63
1689047720.9434972,56
1689047720.9934976,54
1689047721.0434976,49
1689047721.0934932,41
1689047721.1434968,34
1689047721.1934922,29
1689047721.2434967,26
1689047721.2934926,24
1689047721.3324962,22
1689047721.376496,21
1689047721.4264963,19
1689047721.4764965,17
1689047721.5264912,27
1689047721.576496,60
1689047721.6264915,77
1689047721.6764917,74
1689047721.726496,67
1689047721.7764912,61
1689047721.826491,55
1689047721.876491,53
1689047721.9264953,50
1689047721.976495,43
1689047722.0264962,38
1689047722.0764968,31
1689047722.1264908,26
1689047722.1764905,23
1689047722.226495,21
1689047722.2764952,19
1689047722.3265648,17
1689047722.3604946,15
1689047722.4104953,16
1689047722.46049,36
1689047722.5104947,63
1689047722.5604997,79
1689047722.6104953,73
1689047722.6604893,66
1689047722.7104938,59
1689047722.7604942,54
1689047722.8104944,52
1689047722.8604898,49
1689047722.9104896,41
1689047722.9604938,33
1689047723.0104892,26
1689047723.0604937,22
1689047723.1104891,21
1689047723.1604893,20
1689047723.2104886,18
1689047723.26049,15
1689047723.310489,13
1689047723.3444886,18
1689047723.3954926,34
1689047723.4434927,67
1689047723.4934928,80
1689047723.5434878,73
1689047723.5934885,64
1689047723.6435108,57
1689047723.693511,53
1689047723.743507,52
1689047723.793507,48
1689047723.843511,40
1689047723.8935103,31
1689047723.9435058,24
1689047723.993507,21
1689047724.0435054,19
1689047724.0935104,18
1689047724.1435063,17
1689047724.193511,14
1689047724.24351,12
1689047724.2935104,12
1689047724.332506,33
1689047724.377505,56
1689047724.4275048,78
1689047724.4775052,74
1689047724.5275095,63
1689047724.5775049,54
1689047724.6275094,50
1689047724.677509,51
1689047724.7275767,49
1689047724.7775092,41
1689047724.827509,32
1689047724.877505,24
1689047724.9275088,19
1689047724.9775093,17
1689047725.027504,16
1689047725.0775084,14
1689047725.1275203,12
1689047725.1775043,9
1689047725.2275085,13
1689047725.2775044,40
1689047725.3275082,70
1689047725.3605082,73
1689047725.4105108,66
1689047725.4605088,55
1689047725.5105078,47
1689047725.560504,47
1689047725.6105037,50
1689047725.6605077,46
1689047725.7105045,38
1689047725.7605035,28
1689047725.8105037,21
1689047725.8605032,17
1689047725.9105024,15
1689047725.977502,15
1689047726.0275068,13
1689047726.077503,12
1689047726.1275096,28
1689047726.1775048,66
1689047726.2275066,79
1689047726.2775066,72
1689047726.3275163,58
1689047726.3625069,49
1689047726.4105065,47
1689047726.4605014,50
1689047726.510507,51
1689047726.560506,44
1689047726.6105022,35
1689047726.660501,28
1689047726.710502,23
1689047726.760081,21
1689047726.8100808,21
1689047726.8600848,21
1689047726.9100804,20
1689047726.9600844,23
1689047727.0100799,49
1689047727.0600846,78
1689047727.1100795,80
1689047727.1600842,67
1689047727.2100806,55
1689047727.2600791,51
1689047727.310084,55
1689047727.3440797,56
1689047727.3940794,52
1689047727.4430861,42
1689047727.494085,33
1689047727.5440795,27
1689047727.5940838,24
1689047727.6440794,24
1689047727.694079,24
1689047727.744079,24
1689047727.794083,25
1689047727.8460834,46
1689047727.8950782,76
1689047727.9444394,82
1689047727.9947605,70
1689047728.0447564,58
1689047728.0947604,54
1689047728.1447563,57
1689047728.19476,59
1689047728.2447603,52
1689047728.2947605,43
1689047728.3327603,37
1689047728.377756,33
1689047728.4277601,31
1689047728.4777558,30
1689047728.5277567,30
1689047728.5777612,29
1689047728.6277597,35
1689047728.6777613,65
1689047728.7277596,80
1689047728.777756,72
1689047728.82776,56
1689047728.8777554,44
1689047728.9277592,42
1689047728.9777591,45
1689047729.0277596,44
1689047729.077754,36
1689047729.1277602,22
1689047729.1777546,8
1689047729.2277536,0
1689047729.2777548,0
1689047729.327759,0
1689047729.3637583,0
1689047729.4107609,0
1689047729.4607582,0
1689047729.5107539,31
1689047729.560758,45
1689047729.6107533,37
1689047729.6607535,21
1689047729.7107537,9
1689047729.760754,10
1689047729.810754,21
1689047729.8607543,25
1689047729.910762,20
1689047729.9607575,10
1689047730.0107534,2
1689047730.0607572,0
1689047730.1107576,0
1689047730.160754,1
1689047730.210757,26
1689047730.2607574,62
1689047730.3107529,74
1689047730.3447526,62
1689047730.394757,49
1689047730.4447527,32
1689047730.4957523,29
1689047730.5447564,38
1689047730.5947561,43
1689047730.6447566,40
1689047730.694756,32
1689047730.7447517,24
1689047730.7947564,20
1689047730.8447576,20
1689047730.8947518,26
1689047730.9467525,55
1689047730.9947557,90
1689047731.0447524,98
1689047731.0947506,87
1689047731.1447506,72
1689047731.194751,60
1689047731.2447505,58
1689047731.294751,59
1689047731.3337512,55
1689047731.3777559,49
1689047731.427755,40
1689047731.4777505,33
1689047731.5277555,30
1689047731.5777507,30
1689047731.627755,41
1689047731.6777546,72
1689047731.7277503,94
1689047731.777755,92
1689047731.8277557,83
1689047731.8777494,71
1689047731.9277499,61
1689047731.9777503,58
1689047732.027754,56
1689047732.0777504,48
1689047732.12775,38
1689047732.1777494,30
1689047732.2277534,26
1689047732.2777495,25
1689047732.3277495,28
1689047732.361758,49
1689047732.4117532,69
1689047732.4617534,82
1689047732.51175,76
1689047732.5618367,67
1689047732.6118376,58
1689047732.6618412,51
1689047732.711841,50
1689047732.761837,48
1689047732.811837,41
1689047732.8618414,34
1689047732.9118407,28
1689047732.961837,25
1689047733.0118358,30
1689047733.0618422,54
1689047733.1111162,80
1689047733.1612225,81
1689047733.2112224,72
1689047733.2612302,64
1689047733.3112226,55
1689047733.3442237,50
1689047733.394222,50
1689047733.4452174,46
1689047733.4942222,38
1689047733.5442173,29
1689047733.594225,23
1689047733.644222,19
1689047733.6952176,24
1689047733.7442174,48
1689047733.7942219,74
1689047733.8442335,76
1689047733.894234,69
1689047733.9612331,61
1689047734.0112338,49
1689047734.0613577,47
1689047734.111357,44
1689047734.161358,38
1689047734.211361,29
1689047734.2614167,22
1689047734.3114445,19
1689047734.3444443,17
1689047734.3954754,21
1689047734.4444695,44
1689047734.4944692,72
1689047734.5444677,75
1689047734.5944777,69
1689047734.644482,61
1689047734.6946087,51
1689047734.744702,46
1689047734.7940266,44
1689047734.8440132,39
1689047734.8940172,30
1689047734.944132,22
1689047734.9942126,16
1689047735.0442116,14
1689047735.0942163,12
1689047735.1452162,17
1689047735.1952162,43
1689047735.2453117,71
1689047735.2943017,74
1689047735.3335004,68
1689047735.3775022,63
1689047735.427599,52
1689047735.4785974,46
1689047735.5285988,45
1689047735.5785973,41
1689047735.6286287,34
1689047735.678735,25
1689047735.7279809,20
1689047735.7781699,18
1689047735.82817,18
1689047735.878177,16
1689047735.9287271,20
1689047735.97852,52
1689047736.0283597,75
1689047736.078422,78
1689047736.1284218,73
1689047736.178661,65
1689047736.2282438,54
1689047736.2802866,49
1689047736.3306644,47
1689047736.3647203,40
1689047736.4146643,35
1689047736.4638789,28
1689047736.5138958,24
1689047736.5638905,22
1689047736.6139169,20
1689047736.6646214,18
1689047736.714628,15
1689047736.7646208,12
1689047736.8146212,10
1689047736.8646169,9
1689047736.9146166,8
1689047736.9779084,8
1689047737.02796,23
1689047737.0779874,72
1689047737.1279955,96
1689047737.1780074,93
1689047737.2280068,62
1689047737.278444,58
1689047737.3286996,53
1689047737.3617003,51
1689047737.4117002,50
1689047737.4618533,46
1689047737.5118647,41
1689047737.5609999,37
1689047737.6109958,34
1689047737.6610253,32
1689047737.7111313,31
1689047737.76115,30
1689047737.8111436,28
1689047737.861139,27
1689047737.9111435,25
1689047737.962156,24
1689047738.0111563,23
1689047738.0611575,30
1689047738.111189,49
1689047738.1612976,65
1689047738.211293,63
1689047738.2612936,57
1689047738.3114576,53
1689047738.34452,50
1689047738.3945203,48
1689047738.4445224,47
1689047738.4945204,45
1689047738.5445206,40
1689047738.5940094,34
1689047738.6445763,30
1689047738.6944385,29
1689047738.7446737,28
1689047738.7946265,28
1689047738.8446264,27
1689047738.8946304,25
1689047738.9446256,22
1689047738.9946308,20
1689047739.0446308,20
1689047739.0946257,32
1689047739.1466298,55
1689047739.1946418,67
1689047739.2446418,63
1689047739.2948363,57
1689047739.3332748,52
1689047739.3781054,49
1689047739.4281166,48
1689047739.4781103,47
1689047739.5281098,43
1689047739.578838,39
1689047739.6278415,33
1689047739.678855,30
1689047739.7288506,28
1689047739.777856,27
1689047739.8278496,27
1689047739.8781128,26
1689047739.92836,24
1689047739.9783597,22
1689047740.028364,32
1689047740.0783598,54
1689047740.1283636,66
1689047740.1783655,64
1689047740.228366,57
1689047740.2783587,52
1689047740.3283641,48
1689047740.361359,47
1689047740.4113588,46
1689047740.4613633,43
1689047740.511359,39
1689047740.5613632,33
1689047740.6113644,28
1689047740.6613636,26
1689047740.7113585,26
1689047740.7613628,25
1689047740.8113582,24
1689047740.8613625,23
1689047740.911358,21
1689047740.9753578,40
1689047741.0253587,61
1689047741.075362,66
1689047741.1253633,59
1689047741.175357,52
1689047741.2253618,47
1689047741.2753623,46
1689047741.3253622,46
1689047741.3593569,44
1689047741.4093573,40
1689047741.4613583,35
1689047741.5113587,30
1689047741.5613616,26
1689047741.611357,25
1689047741.6613572,25
1689047741.7114208,25
1689047741.761195,24
1689047741.811197,23
1689047741.861195,31
1689047741.9111905,53
1689047741.9611945,67
1689047742.0111904,63
1689047742.0611944,55
1689047742.11119,49
1689047742.1611943,47
1689047742.211194,48
1689047742.2611892,47
1689047742.3111901,42
1689047742.3451896,36
1689047742.395194,33
1689047742.4451897,29
1689047742.4955251,28
1689047742.545034,28
1689047742.5950365,29
1689047742.6450365,28
1689047742.696032,29
1689047742.7470324,44
1689047742.7950358,63
1689047742.845032,65
1689047742.895036,57
1689047742.9450343,49
1689047742.995036,45
1689047743.0450358,46
1689047743.0950353,47
1689047743.145452,44
1689047743.1955633,39
1689047743.2665632,33
1689047743.314563,28
1689047743.3485582,27
1689047743.3985631,28
1689047743.448559,28
1689047743.4985628,27
1689047743.5485585,34
1689047743.5985627,53
1689047743.648559,65
1689047743.6985576,63
1689047743.7485633,55
1689047743.7985628,46
1689047743.8485584,40
1689047743.898562,40
1689047743.9485574,38
1689047743.9985578,31
1689047744.0485582,22
1689047744.0985618,14
1689047744.148558,10
1689047744.198562,9
1689047744.2485576,11
1689047744.3035567,13
1689047744.3375616,14
1689047744.3875616,16
1689047744.4455566,35
1689047744.4935565,60
1689047744.5435622,60
1689047744.5945573,49
1689047744.6435614,38
1689047744.6935625,36
1689047744.7435565,42
1689047744.7935627,46
1689047744.8435614,41
1689047744.8935566,35
1689047744.9435604,30
1689047744.993561,27
1689047745.0435572,28
1689047745.0935602,29
1689047745.1455555,35
1689047745.195556,52
1689047745.2455556,64
1689047745.30156,59
1689047745.3345563,48
1689047745.3845603,42
1689047745.4455595,40
1689047745.4955595,46
1689047745.545555,46
1689047745.5955606,41
1689047745.6455553,36
1689047745.695555,31
1689047745.7450964,30
1689047745.7951505,31
1689047745.8461463,31
1689047745.8961504,38
1689047745.946147,54
1689047745.99515,65
1689047746.0451458,61
1689047746.0951457,53
1689047746.1451507,46
1689047746.19515,44
1689047746.2451446,47
1689047746.2948363,46
1689047746.3345928,41
1689047746.378588,38
1689047746.4285944,33
1689047746.4785924,31
1689047746.5285878,32
1689047746.5785873,32
1689047746.6285934,35
1689047746.6785903,52
1689047746.7285879,63
1689047746.778588,61
1689047746.8285878,54
1689047746.8785918,49
1689047746.9435916,46
1689047746.9936044,47
1689047747.0430567,46
1689047747.0930552,41
1689047747.143125,37
1689047747.1930506,33
1689047747.24305,32
1689047747.2930555,33
1689047747.334055,32
1689047747.37605,33
1689047747.4260561,43
1689047747.4780507,59
1689047747.5280507,62
1689047747.5780544,58
1689047747.62805,54
1689047747.6780539,49
1689047747.7280495,47
1689047747.7780554,46
1689047747.8280554,44
1689047747.8787594,40
1689047747.92814,36
1689047747.9781454,33
1689047748.0281398,32
1689047748.0781438,32
1689047748.1281395,31
1689047748.1781437,30
1689047748.2281437,32
1689047748.2781394,45
1689047748.3281395,61
1689047748.3621438,63
1689047748.4121437,60
1689047748.4621391,57
1689047748.5121431,53
1689047748.5621383,49
1689047748.6121383,47
1689047748.6621382,44
1689047748.712138,40
1689047748.7621388,37
1689047748.8121386,34
1689047748.8621385,32
1689047748.9121385,31
1689047748.9621425,30
1689047749.012139,29
1689047749.0621383,28
1689047749.1121423,27
1689047749.1621373,30
1689047749.212142,44
1689047749.2621427,59
1689047749.312142,59
1689047749.3451416,55
1689047749.3951418,54
1689047749.446142,50
1689047749.4951372,47
1689047749.5448453,46
1689047749.5949786,44
1689047749.6449826,40
1689047749.694983,36
1689047749.7449775,33
1689047749.7949824,32
1689047749.844982,32
1689047749.895978,31
1689047749.9449825,30
1689047749.994978,28
1689047750.044982,27
1689047750.0969782,29
1689047750.1469817,42
1689047750.1949775,57
1689047750.2449813,58
1689047750.2949772,54
1689047750.3339777,51
1689047750.3789814,49
1689047750.4289773,46
1689047750.4789782,45
1689047750.528978,43
1689047750.578981,40
1689047750.6299765,36
1689047750.6789808,34
1689047750.7289875,32
1689047750.7789857,32
1689047750.8289762,31
1689047750.8789766,30
1689047750.9299805,29
1689047750.9789817,28
1689047751.0289752,29
1689047751.078982,42
1689047751.1289759,56
1689047751.1794062,57
1689047751.2288907,52
1689047751.2793913,49
1689047751.3291216,46
1689047751.3621163,45
1689047751.412121,45
1689047751.4621208,43
1689047751.5121212,40
1689047751.5621166,36
1689047751.6121204,33
1689047751.6621165,32
1689047751.7121222,32
1689047751.7621207,31
1689047751.8121157,30
1689047751.8621202,29
1689047751.9121203,27
1689047751.962116,28
1689047752.012115,40
1689047752.0627,54
1689047752.112699,56
1689047752.1626992,51
1689047752.212704,47
1689047752.2626998,44
1689047752.3127034,44
1689047752.3457036,43
1689047752.3957174,42
1689047752.4456985,39
1689047752.4957635,35
1689047752.5448408,32
1689047752.5948453,30
1689047752.6448402,30
1689047752.695468,30
1689047752.7453876,30
1689047752.7963831,29
1689047752.8463829,31
1689047752.8973875,42
1689047752.9463885,55
1689047752.996383,55
1689047753.0463872,59
1689047753.096385,49
1689047753.146387,44
1689047753.196382,45
1689047753.2463872,44
1689047753.2963862,38
1689047753.3343828,29
1689047753.379266,24
1689047753.429657,18
1689047753.4796562,17
1689047753.5296566,18
1689047753.5796566,18
1689047753.6296608,17
1689047753.6796608,16
1689047753.7296607,33
1689047753.7796557,63
1689047753.8296564,72
1689047753.8796566,60
1689047753.9296563,46
1689047753.9796555,38
1689047754.0296552,39
1689047754.079656,41
1689047754.1296597,39
1689047754.1796563,30
1689047754.2296596,20
1689047754.2796595,14
1689047754.32966,13
1689047754.3646553,16
1689047754.4126556,18
1689047754.4626544,19
1689047754.5126548,29
1689047754.562655,56
1689047754.612655,76
1689047754.6626644,71
1689047754.712659,58
1689047754.7626545,48
1689047754.8126545,45
1689047754.8626537,47
1689047754.9126592,45
1689047754.9626594,39
1689047755.0126536,32
1689047755.0626552,27
1689047755.1126583,24
1689047755.1626534,24
1689047755.2126555,23
1689047755.262658,32
1689047755.3126533,53
1689047755.3466578,66
1689047755.396658,63
1689047755.446658,53
1689047755.4966574,45
1689047755.546653,43
1689047755.5966575,46
1689047755.6466532,45
1689047755.6966584,40
1689047755.7466593,32
1689047755.7966568,27
1689047755.8466573,24
1689047755.8966527,23
1689047755.946653,24
1689047755.9966571,36
1689047756.0466526,55
1689047756.0966568,60
1689047756.146657,51
1689047756.196657,42
1689047756.2466524,39
1689047756.2966566,39
1689047756.3356562,39
1689047756.3796513,36
1689047756.4296513,28
1689047756.479656,21
1689047756.5296562,15
1689047756.5796556,12
1689047756.6297233,10
1689047756.6796596,9
1689047756.7296562,18
1689047756.7796514,31
1689047756.829651,30
1689047756.8796515,19
1689047756.9296508,8
1689047756.9796553,4
1689047757.0296504,7
1689047757.079652,10
1689047757.12965,7
1689047757.1796508,1
1689047757.2296553,0
1689047757.2796514,0
1689047757.329655,0
1689047757.3636546,0
1689047757.4136496,0
1689047757.4636545,15
1689047757.5136495,31
1689047757.5636492,29
1689047757.61365,17
1689047757.6636546,6
1689047757.713649,6
1689047757.7636495,15
1689047757.813649,18
1689047757.8636534,15
1689047757.9136493,11
1689047757.9636493,7
1689047758.0136495,6
1689047758.0636542,7
1689047758.1136487,23
1689047758.1636484,51
1689047758.2136512,67
1689047758.2636528,66
1689047758.3136485,58
1689047758.3466482,54
1689047758.396649,55
1689047758.4466486,58
1689047758.496653,58
1689047758.5466483,54
1689047758.5966487,50
1689047758.6467216,47
1689047758.6966531,47
1689047758.747648,57
1689047758.7976525,79
1689047758.846648,91
1689047758.8966472,88
1689047758.9466522,82
1689047758.9966476,76
1689047759.0466483,70
1689047759.0966516,67
1689047759.1466472,62
1689047759.1966522,54
1689047759.2466466,46
1689047759.2966516,40
1689047759.3356514,37
1689047759.3796513,35
1689047759.4296463,40
1689047759.4796462,57
1689047759.5296462,68
1689047759.579651,62
1689047759.6296465,50
1689047759.6796467,38
1689047759.7296507,25
1689047759.7796502,20
1689047759.829646,20
1689047759.8796463,15
1689047759.92965,7
1689047759.979647,1
1689047760.0306458,0
1689047760.0790234,0
1689047760.1294615,0
1689047760.1794608,0
1689047760.2294564,16
1689047760.2794569,38
1689047760.3294604,40
1689047760.3634605,34
1689047760.4134557,28
1689047760.4634562,22
1689047760.5134602,28
1689047760.5634556,45
1689047760.613456,58
1689047760.6634555,58
1689047760.7134564,53
1689047760.7634602,51
1689047760.8134556,54
1689047760.8634555,61
1689047760.9134598,79
1689047760.980456,95
1689047761.0304546,89
1689047761.0804608,83
1689047761.1304595,75
1689047761.1804552,68
1689047761.230459,62
1689047761.2804592,54
1689047761.3304598,45
1689047761.3634589,35
1689047761.4134593,28
1689047761.4634588,20
1689047761.5134542,14
1689047761.5634544,5
1689047761.6134608,0
1689047761.6634548,0
1689047761.713458,0
1689047761.7634583,5
1689047761.813454,36
1689047761.8634582,40
1689047761.9134586,34
1689047761.9634583,27
1689047762.013458,18
1689047762.0634534,18
1689047762.113455,22
1689047762.1634576,20
1689047762.2134573,12
1689047762.2634535,5
1689047762.3134537,0
1689047762.346453,0
1689047762.3964577,0
1689047762.450457,2
1689047762.4994578,32
1689047762.549452,58
1689047762.5994527,64
1689047762.6494524,56
1689047762.6994565,45
1689047762.7494519,40
1689047762.7994523,48
1689047762.8494515,62
1689047762.8994577,65
1689047762.9494529,59
1689047762.9994524,53
1689047763.0494528,54
1689047763.0994565,59
1689047763.1494522,63
1689047763.1994517,74
1689047763.249456,96
1689047763.2994573,108
1689047763.3354506,105
1689047763.3824563,100
1689047763.4334557,90
1689047763.4834557,59
1689047763.5334513,54
1689047763.583455,50
1689047763.6334567,45
1689047763.683456,40
1689047763.733455,35
1689047763.7834566,30
1689047763.8334548,25
1689047763.8834562,19
1689047763.9334505,13
1689047763.9834511,8
1689047764.0334496,6
1689047764.0834494,20
1689047764.1334553,39
1689047764.1838017,42
1689047764.2328477,37
1689047764.2828512,28
1689047764.3328533,17
1689047764.3658473,13
1689047764.4158478,16
1689047764.4658487,21
1689047764.5158465,18
1689047764.5658462,11
1689047764.6158469,4
1689047764.665846,1
1689047764.7165453,0
1689047764.7659051,2
1689047764.8167763,19
1689047764.8667765,51
1689047764.9157755,66
1689047764.9667802,62
1689047765.0167756,51
1689047765.0657752,39
1689047765.116777,33
1689047765.166777,38
1689047765.2167785,41
1689047765.2717795,38
1689047765.3197746,31
1689047765.3517754,30
1689047765.4021769,33
1689047765.4636216,43
1689047765.5136263,50
1689047765.56337,60
1689047765.6133738,84
1689047765.6633692,102
1689047765.713374,105
1689047765.7633739,102
1689047765.8133743,96
1689047765.8633697,90
1689047765.9133735,87
1689047765.9633694,80
1689047766.013374,53
1689047766.0633693,47
1689047766.1133733,41
1689047766.163373,36
1689047766.2133732,32
1689047766.2633681,29
1689047766.313368,27
1689047766.3468626,24
1689047766.3970528,29
1689047766.4510565,38
1689047766.4990566,40
1689047766.550052,35
1689047766.5996132,29
1689047766.6496124,26
1689047766.699612,23
1689047766.7496119,23
1689047766.7996116,27
1689047766.8496485,26
1689047766.8996422,24
1689047766.949245,20
1689047766.998891,16
1689047767.0488906,13
1689047767.0988905,13
1689047767.1488948,18
1689047767.1988945,37
1689047767.2488906,54
1689047767.2988942,55
1689047767.3358898,49
1689047767.3828957,44
1689047767.4328895,36
1689047767.4828892,32
1689047767.5329998,35
1689047767.583585,37
1689047767.633478,33
1689047767.6834798,28
1689047767.7334778,23
1689047767.7834775,19
1689047767.834478,19
1689047767.8834774,21
1689047767.9334776,35
1689047767.9834774,56
1689047768.033473,65
1689047768.0834734,64
1689047768.1334772,63
1689047768.1834724,61
1689047768.2334728,60
1689047768.2834766,61
1689047768.3334725,61
1689047768.3664725,59
1689047768.4164724,56
1689047768.4664714,52
1689047768.51633,49
1689047768.5663562,45
1689047768.616351,42
1689047768.6663563,43
1689047768.716351,54
1689047768.7663517,61
1689047768.816352,59
1689047768.8663557,65
1689047768.916363,53
1689047768.9663534,41
1689047769.0163553,34
1689047769.0663514,30
1689047769.1163554,21
1689047769.1663504,8
1689047769.2163515,0
1689047769.266355,0
1689047769.316355,0
1689047769.3503506,0
1689047769.4003508,0
1689047769.4503543,0
1689047769.5003505,18
1689047769.5503504,69
1689047769.6003494,79
1689047769.6502285,53
1689047769.7002509,45
1689047769.7507527,37
1689047769.8007514,34
1689047769.8507512,37
1689047769.9007473,39
1689047769.9507468,36
1689047770.000751,31
1689047770.050748,26
1689047770.1007526,23
1689047770.1507487,22
1689047770.2007465,29
1689047770.2507508,50
1689047770.3007464,68
1689047770.33675,70
1689047770.3837514,67
1689047770.4332478,62
1689047770.4828894,55
1689047770.5328875,52
1689047770.5834537,51
1689047770.6334543,50
1689047770.6834533,46
1689047770.7334583,42
1689047770.783454,39
1689047770.8334582,37
1689047770.8834584,36
1689047770.9334579,43
1689047770.9834707,61
1689047771.0334663,76
1689047771.083466,77
1689047771.1334703,72
1689047771.183466,66
1689047771.2334702,59
1689047771.2834702,55
1689047771.3334699,53
1689047771.3664696,48
1689047771.4164648,44
1689047771.46647,37
1689047771.5164654,28
1689047771.5664697,19
1689047771.6164653,11
1689047771.6664693,6
1689047771.7164693,10
1689047771.7674644,33
1689047771.8174696,52
1689047771.8674653,53
1689047771.9174654,46
1689047771.9804647,36
1689047772.030469,31
1689047772.080469,32
1689047772.1304705,37
1689047772.1804636,37
1689047772.2304685,34
1689047772.280464,28
1689047772.3304684,24
1689047772.3644686,21
1689047772.414464,24
1689047772.464468,40
1689047772.5144684,57
1689047772.5644677,63
1689047772.6144671,59
1689047772.664468,51
1689047772.7144678,43
1689047772.7644677,40
1689047772.8144631,42
1689047772.8644671,42
1689047772.914467,39
1689047772.9644673,33
1689047773.0144646,28
1689047773.0644672,26
1689047773.1144624,26
1689047773.164467,33
1689047773.214467,52
1689047773.2644627,70
1689047773.314462,72
1689047773.3474624,68
1689047773.3974679,64
1689047773.4474623,58
1689047773.4974663,56
1689047773.547463,60
1689047773.5974662,61
1689047773.6474621,58
1689047773.6974628,53
1689047773.747466,47
1689047773.797466,45
1689047773.8474607,45
1689047773.8974657,47
1689047773.947461,58
1689047773.9974656,70
1689047774.0474653,70
1689047774.0974607,62
1689047774.1474605,53
1689047774.1974652,45
1689047774.247468,40
1689047774.2974653,39
1689047774.3364654,37
1689047774.3814602,34
1689047774.4314647,29
1689047774.4814606,23
1689047774.5314605,16
1689047774.5814645,11
1689047774.6314645,8
1689047774.6814594,9
1689047774.7314641,23
1689047774.7814877,46
1689047774.8314912,56
1689047774.8814867,52
1689047774.9484913,45
1689047774.997487,36
1689047775.0474873,37
1689047775.0974925,40
1689047775.1474872,39
1689047775.1974862,34
1689047775.247486,28
1689047775.3034909,25
1689047775.3364859,24
1689047775.3864868,24
1689047775.436492,35
1689047775.4864864,53
1689047775.5364904,63
1689047775.5864906,60
1689047775.6364853,53
1689047775.686514,47
1689047775.736486,47
1689047775.786486,51
1689047775.836491,54
1689047775.88649,53
1689047775.9364865,51
1689047775.986486,49
1689047776.0364895,47
1689047776.0864854,46
1689047776.136485,47
1689047776.1864853,56
1689047776.2364845,65
1689047776.286486,64
1689047776.3364844,57
1689047776.3864896,50
1689047776.447489,44
1689047776.4974842,41
1689047776.5474854,40
1689047776.597484,37
1689047776.6474848,31
1689047776.6974843,25
1689047776.74753,20
1689047776.7975528,16
1689047776.8475528,13
1689047776.897728,11
1689047776.9469628,14
1689047776.9989676,34
1689047777.0489638,54
1689047777.0969908,56
1689047777.146991,50
1689047777.1970186,43
1689047777.247025,38
1689047777.2990313,39
1689047777.3360302,41
1689047777.3810291,40
1689047777.4310284,38
1689047777.4810245,33
1689047777.531036,30
1689047777.5810287,30
1689047777.6310244,31
1689047777.6810286,36
1689047777.7310283,50
1689047777.781028,64
1689047777.831028,65
1689047777.881029,60
1689047777.9310284,55
1689047777.9810278,53
1689047778.0310278,56
1689047778.0810275,58
1689047778.1310275,55
1689047778.1810274,50
1689047778.2310274,46
1689047778.281023,44
1689047778.3310232,43
1689047778.364023,42
1689047778.414027,40
1689047778.464027,40
1689047778.5140266,50
1689047778.5640266,60
1689047778.6140246,57
1689047778.664027,57
1689047778.7140265,43
1689047778.7640228,32
1689047778.814023,27
1689047778.864022,28
1689047778.9140263,25
1689047778.9640262,14
1689047779.0140264,2
1689047779.064024,0
1689047779.1140263,0
1689047779.164026,0
1689047779.2140255,0
1689047779.2640214,7
1689047779.3140254,42
1689047779.3490252,73
1689047779.3980255,75
1689047779.448025,65
1689047779.4980211,52
1689047779.5480201,42
1689047779.5980203,40
1689047779.648025,44
1689047779.6980226,41
1689047779.7484546,32
1689047779.7983057,22
1689047779.8480797,16
1689047779.8987541,16
1689047779.9479463,19
1689047779.9994476,23
1689047780.050453,45
1689047780.0994513,80
1689047780.1484513,93
1689047780.198452,85
1689047780.2484512,75
1689047780.3034513,70
1689047780.337448,73
1689047780.387451,75
1689047780.4484508,72
1689047780.4984527,61
1689047780.5484467,52
1689047780.5984523,46
1689047780.6484506,42
1689047780.6984513,39
1689047780.7484503,32
1689047780.7984507,26
1689047780.8494503,40
1689047780.8994503,69
1689047780.9484503,76
1689047780.9980278,60
1689047781.0480282,45
1689047781.0980277,34
1689047781.1480222,27
1689047781.198023,26
1689047781.2480223,25
1689047781.2980225,16
1689047781.337023,1
1689047781.3810267,0
1689047781.4310226,0
1689047781.4810266,0
1689047781.5310223,0
1689047781.5810263,0
1689047781.631022,0
1689047781.6810217,35
1689047781.730949,74
1689047781.7814834,78
1689047781.8314884,63
1689047781.8814855,46
1689047781.9314852,37
1689047781.9814887,40
1689047782.031484,44
1689047782.0814838,40
1689047782.131488,28
1689047782.1814878,17
1689047782.231484,10
1689047782.2814877,9
1689047782.3314834,11
1689047782.3654838,15
1689047782.4154875,30
1689047782.4674869,67
1689047782.517487,89
1689047782.5674832,80
1689047782.617487,65
1689047782.6674874,50
1689047782.717487,43
1689047782.7674825,47
1689047782.817487,46
1689047782.8674867,37
1689047782.9174867,25
1689047782.9814823,13
1689047783.0314872,11
1689047783.0814815,12
1689047783.130933,13
1689047783.1816695,16
1689047783.2313485,42
1689047783.284348,82
1689047783.3343477,92
1689047783.3673482,79
1689047783.4173517,75
1689047783.4673524,60
1689047783.517348,50
1689047783.5673516,51
1689047783.6173496,51
1689047783.6673512,42
1689047783.7173512,31
1689047783.7673514,22
1689047783.817351,20
1689047783.8673522,22
1689047783.917351,27
1689047783.9673507,37
1689047784.0173483,62
1689047784.0673509,98
1689047784.1173491,111
1689047784.1673458,102
1689047784.2173476,64
1689047784.272347,58
1689047784.3213506,52
1689047784.3543468,49
1689047784.40435,47
1689047784.46535,42
1689047784.5153468,35
1689047784.5653498,30
1689047784.6153498,26
1689047784.665346,24
1689047784.7153497,22
1689047784.7653496,20
1689047784.8153455,14
1689047784.8653493,12
1689047784.9153492,31
1689047784.9653492,50
1689047785.0153491,50
1689047785.0653446,44
1689047785.115345,40
1689047785.165345,35
1689047785.2153447,34
1689047785.265349,36
1689047785.3153505,35
1689047785.3483484,30
1689047785.39835,26
1689047785.4493442,21
1689047785.4983482,19
1689047785.5483444,20
1689047785.5983438,22
1689047785.64935,29
1689047785.699348,47
1689047785.748348,62
1689047785.798395,62
1689047785.848345,55
1689047785.8983479,48
1689047785.9483435,43
1689047785.9983475,44
1689047786.04835,46
1689047786.0983477,44
1689047786.148343,43
1689047786.1983473,43
1689047786.2483473,44
1689047786.2983472,43
1689047786.337347,42
1689047786.3823473,42
1689047786.4323468,42
1689047786.484347,54
1689047786.5343418,65
1689047786.5843425,62
1689047786.6343462,54
1689047786.6843424,48
1689047786.734346,43
1689047786.783892,40
1689047786.8338962,36
1689047786.8838959,30
1689047786.933892,22
1689047786.9838958,15
1689047787.0338972,9
1689047787.0838966,5
1689047787.1338956,6
1689047787.1838958,8
1689047787.2338955,9
1689047787.2838917,18
1689047787.3338952,41
1689047787.3688908,58
1689047787.417891,58
1689047787.4678912,51
1689047787.5178952,42
1689047787.5678947,37
1689047787.6178956,39
1689047787.6678913,42
1689047787.7178946,40
1689047787.7678897,36
1689047787.8178904,31
1689047787.8678901,29
1689047787.917893,32
1689047787.9678946,40
1689047788.0178905,47
1689047788.0678916,57
1689047788.117894,67
1689047788.1678948,68
1689047788.21789,65
1689047788.267894,62
1689047788.3178895,60
1689047788.3508892,59
1689047788.4008906,57
1689047788.4508886,51
1689047788.5008936,44
1689047788.5508895,37
1689047788.600893,31
1689047788.650894,28
1689047788.700893,27
1689047788.7508895,26
1689047788.8008924,25
1689047788.8508947,34
1689047788.9008887,49
1689047788.9508896,54
1689047789.0018885,53
1689047789.0508883,39
1689047789.1008928,30
1689047789.1508887,26
1689047789.2008872,28
1689047789.2508879,29
1689047789.3008873,24
1689047789.336892,16
1689047789.384892,12
1689047789.4348915,9
1689047789.4848871,12
1689047789.5348916,19
1689047789.58489,38
1689047789.634892,70
1689047789.6848912,90
1689047789.734891,89
1689047789.784887,79
1689047789.834891,69
1689047789.884893,65
1689047789.934891,68
1689047789.9848871,65
1689047790.0348868,57
1689047790.0848906,49
1689047790.1348906,43
1689047790.1848862,38
1689047790.2348907,32
1689047790.2848866,25
1689047790.33489,17
1689047790.3685884,25
1689047790.4185836,40
1689047790.4685886,54
1689047790.5185888,44
1689047790.568588,31
1689047790.618583,23
1689047790.6685846,17
1689047790.7185829,17
1689047790.768584,18
1689047790.8185873,15
1689047790.8685875,7
1689047790.9185874,0
1689047790.9685848,0
1689047791.0185874,2
1689047791.068588,9
1689047791.118583,27
1689047791.1685872,62
1689047791.218587,86
1689047791.2685874,83
1689047791.3185875,72
1689047791.3515825,63
1689047791.4011276,62
1689047791.4511282,66
1689047791.5011275,67
1689047791.5511274,62
1689047791.601128,54
1689047791.6511276,48
1689047791.7011278,44
1689047791.751123,43
1689047791.801127,40
1689047791.8511226,40
1689047791.9011228,62
1689047791.9511235,76
1689047792.001124,68
1689047792.0511267,54
1689047792.1011264,40
1689047792.1511269,26
1689047792.201126,16
1689047792.251122,13
1689047792.301122,8
1689047792.3381276,0
1689047792.3851266,0
1689047792.435126,0
1689047792.4851258,0
1689047792.535121,0
1689047792.5851214,0
1689047792.6351259,0
1689047792.6851273,23
1689047792.7351205,50
1689047792.7851255,57
1689047792.8351278,53
1689047792.8849893,47
1689047792.935497,45
1689047792.9854922,47
1689047793.0354927,47
1689047793.0854979,44
1689047793.135492,41
1689047793.1854966,40
1689047793.2354965,40
1689047793.2854922,42
1689047793.3354962,44
1689047793.368496,55
1689047793.4184918,69
1689047793.4684918,84
1689047793.518496,82
1689047793.5684912,75
1689047793.6184914,66
1689047793.6684957,57
1689047793.7184913,50
1689047793.7684953,44
1689047793.8184972,36
1689047793.8684912,23
1689047793.9184952,10
1689047793.968492,0
1689047794.018495,0
1689047794.0684946,0
1689047794.1184916,0
1689047794.1684947,0
1689047794.2184944,0
1689047794.268491,10
1689047794.3184948,37
1689047794.3524942,42
1689047794.4024944,40
1689047794.45249,35
1689047794.5024946,28
1689047794.5524943,27
1689047794.60249,31
1689047794.6524937,30
1689047794.7024899,24
1689047794.7524939,19
1689047794.80249,15
1689047794.8524935,15
1689047794.902489,16
1689047794.952491,16
1689047795.0024893,27
1689047795.0524933,48
1689047795.1024933,58
1689047795.152493,55
1689047795.202494,49
1689047795.2524931,42
1689047795.3024929,40
1689047795.3384895,42
1689047795.3854926,41
1689047795.4354906,36
1689047795.4854927,30
1689047795.5354886,26
1689047795.5854924,24
1689047795.6354876,24
1689047795.6854935,24
1689047795.735488,22
1689047795.785492,29
1689047795.8354924,51
1689047795.885359,70
1689047795.935022,70
1689047795.985026,63
1689047796.0350258,55
1689047796.0850277,48
1689047796.1350207,47
1689047796.1850266,46
1689047796.2350209,40
1689047796.2850254,33
1689047796.3350213,26
1689047796.3680212,24
1689047796.4180202,23
1689047796.4680254,21
1689047796.5180213,19
1689047796.5680223,24
1689047796.6180372,44
1689047796.668021,66
1689047796.7180247,67
1689047796.7680333,61
1689047796.8180327,54
1689047796.869033,47
1689047796.9190288,45
1689047796.9690332,45
1689047797.0190325,40
1689047797.069033,32
1689047797.1190324,25
1689047797.1700287,21
1689047797.219032,19
1689047797.2690327,18
1689047797.319032,17
1689047797.352032,17
1689047797.4020278,26
1689047797.4530318,53
1689047797.5020494,72
1689047797.5520728,69
1689047797.6018176,61
1689047797.652742,54
1689047797.7025883,48
1689047797.7519295,47
1689047797.8025012,46
1689047797.8518376,39
1689047797.9026911,30
1689047797.9521492,24
1689047798.0022228,21
1689047798.052145,20
1689047798.1021473,19
1689047798.152146,17
1689047798.2021465,19
1689047798.2521465,39
1689047798.3021448,67
1689047798.338145,75
1689047798.385145,70
1689047798.4351444,62
1689047798.4851487,54
1689047798.5351458,48
1689047798.585144,47
1689047798.6351442,46
1689047798.6851451,40
1689047798.7351437,32
1689047798.7851434,26
1689047798.835143,23
1689047798.8851485,23
1689047798.935205,23
1689047798.9851432,22
1689047799.0351434,26
1689047799.0851429,48
1689047799.1351476,75
1689047799.1851447,80
1689047799.2351427,73
1689047799.2881472,66
1689047799.3381422,58
1689047799.3882027,52
1689047799.449147,50
1689047799.496145,44
1689047799.5461426,37
1689047799.5961418,29
1689047799.647144,23
1689047799.697244,21
1689047799.7472434,22
1689047799.7975023,21
1689047799.8475022,19
1689047799.8974988,22
1689047799.9604993,47
1689047800.0105433,82
1689047800.0605385,80
1689047800.1107337,74
1689047800.16013,66
1689047800.210126,59
1689047800.2651255,54
1689047800.3131297,52
1689047800.3471296,45
1689047800.3971255,40
1689047800.4491253,33
1689047800.499129,27
1689047800.5493145,25
1689047800.5993185,25
1689047800.6493142,24
1689047800.6987698,22
1689047800.7491722,21
1689047800.7991762,25
1689047800.8511765,51
1689047800.9011714,83
1689047800.9491765,87
1689047800.9993017,75
1689047801.0493982,65
1689047801.0994027,58
1689047801.1493983,57
1689047801.1994028,56
1689047801.2494028,50
1689047801.2994034,40
1689047801.3383982,32
1689047801.3833983,29
1689047801.433398,26
1689047801.4833975,26
1689047801.533402,27
1689047801.5833979,26
1689047801.6334019,25
1689047801.683402,24
1689047801.733402,39
1689047801.7833974,76
1689047801.8333964,88
1689047801.8833973,80
1689047801.9334013,68
1689047801.983397,59
1689047802.033401,54
1689047802.083401,53
1689047802.1334012,49
1689047802.183397,40
1689047802.2334006,31
1689047802.2863958,24
1689047802.336401,21
1689047802.369397,18
1689047802.4194005,18
1689047802.4694002,16
1689047802.519396,13
1689047802.569396,16
1689047802.6193967,40
1689047802.6694,61
1689047802.7193959,55
1689047802.7694,40
1689047802.819402,27
1689047802.8693995,19
1689047802.9193954,21
1689047802.9693995,25
1689047803.0193996,22
1689047803.0694005,14
1689047803.1193953,3
1689047803.1693947,0
1689047803.2194018,0
1689047803.2693942,0
1689047803.3193948,0
1689047803.3523939,0
1689047803.4023988,21
1689047803.4523945,51
1689047803.5023987,50
1689047803.5523942,32
1689047803.6023986,12
1689047803.6523943,5
1689047803.7023935,18
1689047803.752394,28
1689047803.8023942,24
1689047803.8523939,14
1689047803.9023979,6
1689047803.952396,0
1689047804.0023978,0
1689047804.052394,0
1689047804.1023977,27
1689047804.1523936,72
1689047804.2023938,83
1689047804.2523935,68
1689047804.3023975,53
1689047804.3393977,35
1689047804.3863971,35
1689047804.4363923,46
1689047804.4864242,48
1689047804.5366397,39
1689047804.5865214,28
1689047804.6365254,20
1689047804.686521,16
1689047804.7365253,18
1689047804.7865212,42
1689047804.8365266,81
1689047804.8865209,95
1689047804.9365249,86
1689047804.9865205,73
1689047805.0365245,60
1689047805.086521,55
1689047805.1365244,59
1689047805.1865196,57
1689047805.236526,48
1689047805.2865198,39
1689047805.3365245,32
1689047805.3695195,29
1689047805.4195209,35
1689047805.4695191,62
1689047805.5195193,85
1689047805.5695205,85
1689047805.619519,76
1689047805.6695237,66
1689047805.7195237,56
1689047805.7695186,52
1689047805.8190925,52
1689047805.8690968,48
1689047805.919092,40
1689047805.9690917,32
1689047806.0190916,27
1689047806.0690968,38
1689047806.119093,65
1689047806.1690917,80
1689047806.2190912,76
1689047806.2690904,68
1689047806.3190958,58
1689047806.353095,49
1689047806.4030952,47
1689047806.4530911,47
1689047806.5030951,44
1689047806.5530908,37
1689047806.6030946,29
1689047806.6530905,22
1689047806.7030904,26
1689047806.7530947,49
1689047806.8030949,75
1689047806.8530903,79
1689047806.9030943,73
1689047806.9530942,66
1689047807.0030906,57
1689047807.0530899,52
1689047807.103089,52
1689047807.1530938,48
1689047807.2030938,39
1689047807.2530942,31
1689047807.3030894,26
1689047807.3390937,24
1689047807.3860888,27
1689047807.436089,46
1689047807.4860935,72
1689047807.5360882,77
1689047807.5867083,73
1689047807.6364892,67
1689047807.6864848,57
1689047807.7364843,49
1689047807.7864842,47
1689047807.836485,43
1689047807.886489,37
1689047807.9504888,28
1689047808.000486,21
1689047808.0504892,19
1689047808.100489,18
1689047808.1504846,24
1689047808.2004888,49
1689047808.2504842,72
1689047808.3004842,74
1689047808.3394887,69
1689047808.383488,65
1689047808.4334836,55
1689047808.4834883,47
1689047808.5334876,46
1689047808.583484,42
1689047808.6334834,34
1689047808.683488,26
1689047808.7334836,21
1689047808.7834826,20
1689047808.8334858,19
1689047808.883487,19
1689047808.9334824,40
1689047808.983487,68
1689047809.0334826,74
1689047809.083482,71
1689047809.133482,66
1689047809.1834824,55
1689047809.233482,47
1689047809.2834866,45
1689047809.3334825,42
1689047809.3674824,35
1689047809.4174817,29
1689047809.4674823,22
1689047809.5174875,18
1689047809.5674863,17
1689047809.6174815,16
1689047809.6674871,14
1689047809.7174811,25
1689047809.767483,55
1689047809.8175578,74
1689047809.8675718,72
1689047809.9175713,67
1689047809.9675717,59
1689047810.0175712,49
1689047810.0675664,45
1689047810.117571,43
1689047810.167566,36
1689047810.2175708,26
1689047810.267567,19
1689047810.3175724,17
1689047810.3505704,16
1689047810.4005659,15
1689047810.4515662,13
1689047810.5005705,10
1689047810.5505655,8
1689047810.6005664,6
1689047810.6505702,5
1689047810.700566,4
1689047810.7505703,8
1689047810.8025653,36
1689047810.8497815,72
1689047810.899853,80
1689047810.9498487,73
1689047810.9998481,65
1689047811.0498543,57
1689047811.0998497,51
1689047811.1498477,49
1689047811.1998484,44
1689047811.2498524,35
1689047811.2998524,26
1689047811.3388474,19
1689047811.3838525,17
1689047811.4338481,16
1689047811.4838521,14
1689047811.5338478,11
1689047811.583852,9
1689047811.6338518,6
1689047811.6838517,8
1689047811.7348478,34
1689047811.7838485,72
1689047811.8338468,77
1689047811.8838513,69
1689047811.9338524,61
1689047811.9838474,52
1689047812.0338511,47
1689047812.083851,45
1689047812.133853,43
1689047812.183846,33
1689047812.2338471,24
1689047812.285846,16
1689047812.3358462,12
1689047812.3698466,10
1689047812.4198747,10
1689047812.4698856,8
1689047812.519875,6
1689047812.5698793,4
1689047812.6198792,11
1689047812.66988,43
1689047812.7198825,74
1689047812.7698789,76
1689047812.8198786,68
1689047812.8698788,62
1689047812.9198785,56
1689047812.9838789,54
1689047813.0338793,54
1689047813.0838735,50
1689047813.1338756,47
1689047813.1838741,42
1689047813.23392,39
1689047813.2860785,36
1689047813.3360784,31
1689047813.370074,27
1689047813.4200912,24
1689047813.4700868,20
1689047813.5200913,18
1689047813.5700908,22
1689047813.6200907,49
1689047813.6700904,81
1689047813.7201498,84
1689047813.7700856,73
1689047813.8200865,63
1689047813.8700905,56
1689047813.9200864,53
1689047813.9700859,52
1689047814.0200903,46
1689047814.070087,37
1689047814.1200898,27
1689047814.1698508,20
1689047814.2198505,17
1689047814.2748466,14
1689047814.3228517,13
1689047814.3558507,10
1689047814.4058506,9
1689047814.4668453,6
1689047814.517563,19
1689047814.567765,53
1689047814.6172915,76
1689047814.6672916,71
1689047814.7172863,58
1689047814.7672906,48
1689047814.8172898,42
1689047814.8672864,43
1689047814.9172904,43
1689047814.967287,37
1689047815.0172904,26
1689047815.0672908,16
1689047815.1172864,8
1689047815.1668797,2
1689047815.2168822,0
1689047815.2718794,0
1689047815.3198786,0
1689047815.3535573,0
1689047815.4035578,5
1689047815.4551928,41
1689047815.5031967,59
1689047815.5531976,50
1689047815.6031964,35
1689047815.6531968,22
1689047815.7031932,16
1689047815.7531962,21
1689047815.8031917,26
1689047815.8531966,22
1689047815.9031963,13
1689047815.9531918,3
1689047816.0031962,0
1689047816.0531912,0
1689047816.103196,0
1689047816.153196,0
1689047816.203191,23
1689047816.2531915,59
1689047816.303196,70
1689047816.3392007,57
1689047816.3871915,44
1689047816.4371953,28
1689047816.487191,29
1689047816.537191,43
1689047816.5871913,50
1689047816.637195,44
1689047816.6871948,36
1689047816.7371953,28
1689047816.7871943,25
1689047816.8371944,25
1689047816.8871946,28
1689047816.9371943,52
1689047816.9871898,88
1689047817.0371947,98
1689047817.0871906,85
1689047817.1371956,67
1689047817.1871948,53
1689047817.237335,52
1689047817.2873816,57
1689047817.3373785,54
1689047817.3703773,42
1689047817.4203768,34
1689047817.4703815,24
1689047817.520378,20
1689047817.5703814,19
1689047817.6203814,26
1689047817.6703773,56
1689047817.7203782,89
1689047817.770381,92
1689047817.8203766,79
1689047817.8706517,65
1689047817.9200487,55
1689047817.9700522,56
1689047818.0200489,59
1689047818.0700474,54
1689047818.1200476,43
1689047818.170052,33
1689047818.2200482,27
1689047818.2702367,25
1689047818.3197262,31
1689047818.3537295,57
1689047818.4037263,79
1689047818.4537258,94
1689047818.503729,88
1689047818.5537252,78
1689047818.6037245,67
1689047818.654725,58
1689047818.7047246,57
1689047818.7547255,54
1689047818.8047242,46
1689047818.8547242,37
1689047818.9047236,29
1689047818.9537244,29
1689047819.0037286,40
1689047819.0539799,70
1689047819.103818,85
1689047819.1539009,78
1689047819.2041674,70
1689047819.254172,58
1689047819.3041675,50
1689047819.340172,48
1689047819.3871677,47
1689047819.4371672,40
1689047819.4871676,29
1689047819.537172,22
1689047819.5871677,20
1689047819.6371715,32
1689047819.6871717,61
1689047819.7371712,80
1689047819.7871668,79
1689047819.837173,73
1689047819.887167,64
1689047819.9371717,52
1689047819.987171,48
1689047820.0371711,47
1689047820.087166,41
1689047820.137166,32
1689047820.1871667,24
1689047820.2371712,21
1689047820.2871659,19
1689047820.3376136,21
1689047820.3706658,41
1689047820.4203954,62
1689047820.4705265,81
1689047820.5205216,79
1689047820.5705261,75
1689047820.6205213,65
1689047820.670521,53
1689047820.720522,48
1689047820.770526,46
1689047820.820526,40
1689047820.8705256,30
1689047820.9205217,23
1689047820.9845216,20
1689047821.0345252,20
1689047821.0845213,19
1689047821.1345205,16
1689047821.184521,13
1689047821.2345252,11
1689047821.2845252,8
1689047821.334525,7
1689047821.3681045,7
1689047821.4180987,13
1689047821.4681027,46
1689047821.518103,83
1689047821.5680993,90
1689047821.6181023,84
1689047821.668103,77
1689047821.7180984,68
1689047821.7681022,60
1689047821.8180995,57
1689047821.8680978,52
1689047821.918102,43
1689047821.9680984,38
1689047822.0180979,36
1689047822.068098,36
1689047822.1180973,35
1689047822.168097,34
1689047822.2186036,32
1689047822.268597,31
1689047822.3186018,30
1689047822.3516014,29
1689047822.4015977,29
1689047822.4516003,39
1689047822.5026002,69
1689047822.551596,90
1689047822.6016004,86
1689047822.6516,77
1689047822.701596,70
1689047822.7516017,63
1689047822.8015952,58
1689047822.851596,54
1689047822.9016008,46
1689047822.951609,38
1689047823.0015955,29
1689047823.0515945,24
1689047823.1014173,21
1689047823.1511016,19
1689047823.2010968,17
1689047823.2515664,13
1689047823.3012223,8
1689047823.3402221,4
1689047823.385222,3
1689047823.4352176,3
1689047823.4852183,23
1689047823.535218,65
1689047823.585222,77
1689047823.6352215,69
1689047823.685222,58
1689047823.7352173,51
1689047823.7852166,47
1689047823.8351429,45
1689047823.8851461,42
1689047823.935142,35
1689047823.985146,25
1689047824.035146,17
1689047824.0851462,13
1689047824.135142,12
1689047824.185142,12
1689047824.235141,11
1689047824.2851455,8
1689047824.3351414,5
1689047824.3681436,3
1689047824.4181423,5
1689047824.4711454,32
1689047824.5211406,73
1689047824.571146,77
1689047824.6210294,62
1689047824.671299,48
1689047824.7213004,37
1689047824.771301,30
1689047824.8213012,29
1689047824.871218,26
1689047824.9207535,16
1689047824.9707541,2
1689047825.0207574,0
1689047825.0707579,0
1689047825.1207542,0
1689047825.1707597,0
1689047825.2207577,1
1689047825.270753,2
1689047825.320757,15
1689047825.3537524,54
1689047825.403753,78
1689047825.4537573,85
1689047825.5037527,70
1689047825.553752,50
1689047825.603757,40
1689047825.653758,44
1689047825.7037525,49
1689047825.7537565,43
1689047825.8037522,32
1689047825.8537517,20
1689047825.9037526,10
1689047825.9547513,4
1689047826.004399,2
1689047826.054053,1
1689047826.1040542,10
1689047826.154058,46
1689047826.204054,85
1689047826.254053,87
1689047826.310176,74
1689047826.3433793,61
1689047826.3933742,53
1689047826.451379,46
1689047826.5013747,48
1689047826.5511694,47
1689047826.601656,41
1689047826.65081,30
1689047826.7015862,18
1689047826.7510629,8
1689047826.8010585,6
1689047826.8530626,5
1689047826.9040587,22
1689047826.9530623,60
1689047827.0010586,84
1689047827.0510623,77
1689047827.1010575,62
1689047827.1510572,48
1689047827.201062,41
1689047827.2510622,46
1689047827.3010619,49
1689047827.3400571,42
1689047827.3850617,35
1689047827.4350576,22
1689047827.4850616,16
1689047827.5350573,8
1689047827.5850573,6
1689047827.635061,20
1689047827.6850615,59
1689047827.7350566,89
1689047827.785061,88
1689047827.8350563,74
1689047827.8850608,60
1689047827.9350562,49
1689047827.9850562,48
1689047828.0350568,51
1689047828.0850606,47
1689047828.1350565,37
1689047828.1850564,28
1689047828.2350557,21
1689047828.2850554,18
1689047828.3350563,18
1689047828.3680599,29
1689047828.4180608,49
1689047828.4680614,83
1689047828.518055,90
1689047828.5680552,81
1689047828.6180599,70
1689047828.6680548,60
1689047828.7180555,54
1689047828.7680595,53
1689047828.8180592,49
1689047828.8680544,40
1689047828.9180546,28
1689047828.9680572,21
1689047829.0190547,17
1689047829.0680597,17
1689047829.1180565,24
1689047829.1680589,52
1689047829.2190537,83
1689047829.2684646,88
1689047829.3181543,80
1689047829.352146,71
1689047829.4021463,62
1689047829.4521465,54
1689047829.5024295,52
1689047829.552271,49
1689047829.6022704,42
1689047829.6522746,33
1689047829.7022712,26
1689047829.752289,21
1689047829.8021636,19
1689047829.852168,19
1689047829.9041681,38
1689047829.9531682,70
1689047830.0021672,84
1689047830.0521684,79
1689047830.102164,73
1689047830.1521683,64
1689047830.2021623,54
1689047830.2521966,51
1689047830.3022006,47
1689047830.3421957,40
1689047830.385201,34
1689047830.4352002,25
1689047830.4851966,18
1689047830.5361955,16
1689047830.5852003,15
1689047830.6352,14
1689047830.6852012,29
1689047830.735195,67
1689047830.7856526,82
1689047830.8354003,79
1689047830.884983,73
1689047830.935213,65
1689047830.9852107,54
1689047831.035215,49
1689047831.0852108,47
1689047831.1352148,41
1689047831.1852102,32
1689047831.235084,25
1689047831.2848687,21
1689047831.3349345,19
1689047831.3679342,18
1689047831.4179356,17
1689047831.467934,15
1689047831.5179348,29
1689047831.5679352,61
1689047831.6179342,81
1689047831.6689384,79
1689047831.7189348,73
1689047831.7689383,64
1689047831.8189337,53
1689047831.8689365,48
1689047831.918934,45
1689047831.9689384,38
1689047832.018939,29
1689047832.0689394,23
1689047832.118933,20
1689047832.169038,20
1689047832.2194817,19
1689047832.268776,18
1689047832.3191886,15
1689047832.352648,21
1689047832.4026475,40
1689047832.4553146,73
1689047832.5053935,83
1689047832.5553932,76
1689047832.6053166,68
1689047832.6549144,59
1689047832.7051597,52
1689047832.7548084,49
1689047832.8048053,43
1689047832.8548028,35
1689047832.904803,26
1689047832.9548023,20
1689047833.0048025,18
1689047833.054806,18
1689047833.104802,17
1689047833.1548023,16
1689047833.2048028,13
1689047833.2548015,16
1689047833.3048024,45
1689047833.3413453,80
1689047833.3881655,87
1689047833.4381645,81
1689047833.4881585,74
1689047833.538159,66
1689047833.5881586,58
1689047833.6381586,56
1689047833.688159,52
1689047833.738164,43
1689047833.7881577,35
1689047833.8381624,28
1689047833.8881586,24
1689047833.9521575,21
1689047834.0021572,18
1689047834.0521572,16
1689047834.102157,14
1689047834.152045,12
1689047834.2026093,15
1689047834.2537696,43
1689047834.3018222,80
1689047834.341265,87
1689047834.3856256,81
1689047834.4356258,69
1689047834.4856303,60
1689047834.53563,53
1689047834.5856261,50
1689047834.6356254,46
1689047834.6856256,38
1689047834.7356265,28
1689047834.78563,20
1689047834.8356307,15
1689047834.885625,13
1689047834.935625,12
1689047834.9856255,11
1689047835.0356293,9
1689047835.0856252,6
1689047835.1356254,9
1689047835.1856291,47
1689047835.235624,81
1689047835.2916238,83
1689047835.341624,68
1689047835.3913722,56
1689047835.4519742,47
1689047835.5019784,43
1689047835.5519733,42
1689047835.6019733,35
1689047835.6529732,22
1689047835.701782,9
1689047835.75208,0
1689047835.802074,0
1689047835.8520687,0
1689047835.9020684,0
1689047835.9520679,0
1689047836.002068,0
1689047836.0520723,0
1689047836.105756,0
1689047836.154848,53
1689047836.2048523,80
1689047836.254848,54
1689047836.3048482,43
1689047836.340852,35
1689047836.387847,33
1689047836.437847,37
1689047836.4880996,40
1689047836.5386372,38
1689047836.5878973,32
1689047836.6382678,25
1689047836.6882718,22
1689047836.7382715,21
1689047836.7882752,22
1689047836.838272,24
1689047836.8882675,31
1689047836.9382663,53
1689047836.9882672,66
1689047837.0382714,64
1689047837.0882683,55
1689047837.138273,46
1689047837.1882675,41
1689047837.2382715,45
1689047837.288266,49
1689047837.338271,45
1689047837.372267,38
1689047837.4222713,33
1689047837.472266,27
1689047837.5222657,23
1689047837.5722654,22
1689047837.622272,22
1689047837.672271,26
1689047837.722266,47
1689047837.77227,69
1689047837.8222702,70
1689047837.8720157,62
1689047837.9220097,53
1689047837.9721515,46
1689047838.0221467,45
1689047838.0721524,47
1689047838.122147,45
1689047838.172146,40
1689047838.2221463,33
1689047838.2721472,28
1689047838.3221464,28
1689047838.3551517,31
1689047838.4051464,33
1689047838.4571464,38
1689047838.5051515,53
1689047838.5551517,70
1689047838.6051457,71
1689047838.655146,64
1689047838.705147,57
1689047838.75515,51
1689047838.8051503,49
1689047838.8551457,48
1689047838.905146,45
1689047838.9551501,40
1689047839.0051455,35
1689047839.0551498,31
1689047839.1051447,28
1689047839.1551492,27
1689047839.2051494,27
1689047839.255145,37
1689047839.3051498,57
1689047839.3411443,66
1689047839.389146,64
1689047839.4391446,59
1689047839.4891448,55
1689047839.5391436,51
1689047839.5894926,49
1689047839.6390116,48
1689047839.689016,44
1689047839.7395744,39
1689047839.7895749,34
1689047839.8395753,30
1689047839.8892224,28
1689047839.9391022,27
1689047839.9891083,30
1689047840.0391016,44
1689047840.0891025,63
1689047840.1391017,63
1689047840.1891024,59
1689047840.2391012,54
1689047840.2891061,50
1689047840.3391075,46
1689047840.372107,45
1689047840.4221063,43
1689047840.4721014,40
1689047840.5221057,35
1689047840.5721009,30
1689047840.6221058,27
1689047840.6721022,26
1689047840.7221053,27
1689047840.7726586,27
1689047840.8221745,32
1689047840.8722901,48
1689047840.9217951,62
1689047840.97168,60
1689047841.0218432,55
1689047841.0718248,50
1689047841.1226492,46
1689047841.1721208,44
1689047841.2224717,43
1689047841.2723856,40
1689047841.3225503,36
1689047841.355284,31
1689047841.4048827,29
1689047841.4620187,28
1689047841.5107887,27
1689047841.5607893,27
1689047841.6115634,26
1689047841.6616843,25
1689047841.7113512,33
1689047841.761503,51
1689047841.8113759,62
1689047841.8616192,59
1689047841.911252,53
1689047841.961179,49
1689047842.011198,45
1689047842.0608227,44
1689047842.1111495,43
1689047842.161123,40
1689047842.2115254,35
1689047842.261341,30
1689047842.3113396,27
1689047842.3442852,25
1689047842.3945568,25
1689047842.4532244,24
1689047842.5002387,23
1689047842.5504587,21
1689047842.6001472,25
1689047842.650151,42
1689047842.7001472,58
1689047842.7501466,58
1689047842.8001466,51
1689047842.8501506,44
1689047842.9001536,40
1689047842.9501462,40
1689047843.0001457,41
1689047843.0501502,38
1689047843.1001503,32
1689047843.150146,26
1689047843.20015,20
1689047843.250145,17
1689047843.3001494,17
1689047843.3421457,17
1689047843.3831499,17
1689047843.433145,15
1689047843.4861453,19
1689047843.536149,41
1689047843.5861518,60
1689047843.6361492,58
1689047843.6861446,47
1689047843.7361448,38
1689047843.786149,33
1689047843.8361447,38
1689047843.8861508,41
1689047843.9361486,40
1689047843.9861453,33
1689047844.0361485,26
1689047844.0861483,21
1689047844.1361437,19
1689047844.1861486,18
1689047844.2361507,20
1689047844.2921436,38
1689047844.3421478,64
1689047844.3921478,61
1689047844.4531431,50
1689047844.5031433,39
1689047844.553145,38
1689047844.6031442,44
1689047844.6531444,48
1689047844.703144,43
1689047844.7531478,36
1689047844.8031476,30
1689047844.8527017,27
1689047844.9027712,28
1689047844.9527054,31
1689047845.002701,40
1689047845.0527012,62
1689047845.1027052,76
1689047845.1527004,72
1689047845.202705,64
1689047845.2537012,57
1689047845.302701,52
1689047845.3427045,51
1689047845.3857048,51
1689047845.4367044,48
1689047845.4857006,41
1689047845.5357046,36
1689047845.5857737,30
1689047845.6360078,28
1689047845.6860077,28
1689047845.7360034,29
1689047845.7860026,32
1689047845.8360074,49
1689047845.886002,68
1689047845.9360073,70
1689047845.9860022,63
1689047846.036007,56
1689047846.0860062,51
1689047846.1360064,49
1689047846.1862423,48
1689047846.2361813,45
1689047846.2862725,40
1689047846.3362675,35
1689047846.3703132,30
1689047846.420272,28
1689047846.4702673,27
1689047846.520268,27
1689047846.5702722,27
1689047846.6202679,27
1689047846.6702673,40
1689047846.7202678,61
1689047846.7698328,68
1689047846.8198524,62
1689047846.8698485,55
1689047846.9198503,50
1689047846.9698522,48
1689047847.0198476,48
1689047847.0698478,46
1689047847.1198523,41
1689047847.1698515,35
1689047847.2198515,30
1689047847.2698524,27
1689047847.3198466,26
1689047847.3528478,26
1689047847.4028513,26
1689047847.4528465,25
1689047847.5038471,27
1689047847.5538468,43
1689047847.6028476,62
1689047847.6528466,63
1689047847.7028508,55
1689047847.752848,47
1689047847.8028505,43
1689047847.8528507,43
1689047847.902847,43
1689047847.9528477,40
1689047848.002847,34
1689047848.0528502,27
1689047848.10285,21
1689047848.152846,17
1689047848.20285,16
1689047848.2528503,16
1689047848.3088503,15
1689047848.3418496,14
1689047848.3918457,15
1689047848.4418497,36
1689047848.4918454,60
1689047848.5418494,64
1689047848.5918462,54
1689047848.641845,44
1689047848.69185,38
1689047848.7418492,38
1689047848.7918448,41
1689047848.841845,40
1689047848.8918505,33
1689047848.9418504,25
1689047848.9918447,19
1689047849.041849,17
1689047849.0918484,17
1689047849.1418483,18
1689047849.191844,20
1689047849.2418435,39
1689047849.2918484,62
1689047849.3418481,65
1689047849.391848,53
1689047849.4528484,40
1689047849.5028489,34
1689047849.5528476,40
1689047849.6028476,46
1689047849.6528473,42
1689047849.703572,35
1689047849.7535675,28
1689047849.8035712,23
1689047849.8535717,21
1689047849.9045677,23
1689047849.9565709,31
1689047850.0055714,53
1689047850.053567,74
1689047850.1035717,74
1689047850.1535716,64
1689047850.2035718,54
1689047850.2535665,48
1689047850.3035662,48
1689047850.3425703,50
1689047850.3875701,48
1689047850.4375703,40
1689047850.4875662,33
1689047850.5375714,27
1689047850.5875704,25
1689047850.6375656,25
1689047850.687571,26
1689047850.737565,29
1689047850.7875695,51
1689047850.8375661,71
1689047850.8875654,75
1689047850.9373875,67
1689047850.9873922,59
1689047851.037391,53
1689047851.087392,50
1689047851.1373887,50
1689047851.1873908,47
1689047851.237392,41
1689047851.2874496,35
1689047851.337391,30
1689047851.3713906,27
1689047851.420386,26
1689047851.4703906,27
1689047851.5203905,27
1689047851.5703917,33
1689047851.6203904,53
1689047851.670385,70
1689047851.7203856,69
1689047851.7703907,61
1689047851.8203857,54
1689047851.87039,50
1689047851.9203894,49
1689047851.97039,48
1689047852.0203893,44
1689047852.0703855,39
1689047852.1204526,33
1689047852.1703842,28
1689047852.220389,26
1689047852.270389,26
1689047852.320389,26
1689047852.3533888,25
1689047852.4033897,27
1689047852.4533887,39
1689047852.5033884,60
1689047852.5543845,66
1689047852.6043844,58
1689047852.6543884,49
1689047852.7043858,42
1689047852.7543848,40
1689047852.8043883,41
1689047852.8544002,40
1689047852.9043882,33
1689047852.9673836,25
1689047853.0173833,15
1689047853.0673838,12
1689047853.1173875,10
1689047853.1673875,12
1689047853.2173872,13
1689047853.2673876,15
1689047853.3173878,34
1689047853.3513868,61
1689047853.401387,68
1689047853.454424,61
1689047853.5044503,48
1689047853.5554657,39
1689047853.6044607,37
1689047853.6544664,41
1689047853.7044644,44
1689047853.7544618,39
1689047853.8044615,32
1689047853.8544617,27
1689047853.9044645,22
1689047853.9544618,19
1689047854.0044649,19
1689047854.055461,28
1689047854.1054602,53
1689047854.1544652,69
1689047854.2044606,62
1689047854.254465,50
1689047854.304463,39
1689047854.3434649,38
1689047854.387465,43
1689047854.4374602,48
1689047854.4874642,47
1689047854.5374596,38
1689047854.5874593,30
1689047854.637462,26
1689047854.68746,25
1689047854.7374592,28
1689047854.7874637,41
1689047854.8374598,65
1689047854.8874648,78
1689047854.9374592,74
1689047854.9874585,65
1689047855.037464,56
1689047855.0874584,50
1689047855.1374645,50
1689047855.1874628,49
1689047855.2374637,45
1689047855.2874634,39
1689047855.3374672,33
1689047855.3704631,29
1689047855.4204628,27
1689047855.4704585,28
1689047855.520464,29
1689047855.570463,38
1689047855.6204624,60
1689047855.6704586,73
1689047855.7204628,69
1689047855.7704582,61
1689047855.820462,55
1689047855.870458,52
1689047855.9204664,50
1689047855.9704583,49
1689047856.0204573,46
1689047856.0704582,39
1689047856.1204574,33
1689047856.1704621,30
1689047856.2204564,28
1689047856.2704573,29
1689047856.3204627,29
1689047856.3554616,33
1689047856.405462,43
1689047856.4554608,62
1689047856.504457,67
1689047856.5544558,61
1689047856.6044567,54
1689047856.6544561,48
1689047856.7044575,46
1689047856.7544606,46
1689047856.8044605,44
1689047856.8540015,39
1689047856.9045796,33
1689047856.9545739,29
1689047857.004573,26
1689047857.054577,26
1689047857.104573,26
1689047857.154578,25
1689047857.2045772,23
1689047857.2545729,27
1689047857.3045723,47
1689047857.3435779,64
1689047857.387577,64
1689047857.437573,57
1689047857.4875722,49
1689047857.5375767,44
1689047857.5875773,43
1689047857.6375725,44
1689047857.6875725,40
1689047857.7375724,35
1689047857.7875764,28
1689047857.8375733,23
1689047857.8875723,21
1689047857.9375763,20
1689047857.9875712,20
1689047858.0375757,20
1689047858.0875769,19
1689047858.1375768,28
1689047858.1875715,51
1689047858.2375712,67
1689047858.2905765,63
1689047858.3405752,52
1689047858.3735754,45
1689047858.4235756,42
1689047858.473571,43
1689047858.5235765,44
1689047858.573571,40
1689047858.6235712,33
1689047858.6735747,28
1689047858.7235763,24
1689047858.7735717,22
1689047858.8235707,23
1689047858.8735702,23
1689047858.9235747,27
1689047858.9735746,45
1689047859.02357,63
1689047859.0735743,62
1689047859.1235695,52
1689047859.1735706,42
1689047859.223574,40
1689047859.2735698,43
1689047859.323574,45
1689047859.3575737,42
1689047859.4075737,38
1689047859.4575691,32
1689047859.5069978,27
1689047859.5571156,25
1689047859.6071153,26
1689047859.6571167,27
1689047859.7071114,39
1689047859.7571158,60
1689047859.8071103,69
1689047859.8571157,61
1689047859.9071105,50
1689047859.957115,43
1689047860.00711,43
1689047860.05711,46
1689047860.1071105,45
1689047860.1571105,40
1689047860.20711,34
1689047860.25711,29
1689047860.3071096,26
1689047860.3431098,26
1689047860.3901143,27
1689047860.4401104,28
1689047860.4901145,33
1689047860.5401094,51
1689047860.5903766,69
1689047860.6402087,68
1689047860.6901426,59
1689047860.7401426,52
1689047860.7901373,48
1689047860.840138,47
1689047860.8901381,47
1689047860.9401376,43
1689047860.9901378,38
1689047861.0401425,33
1689047861.0901368,29
1689047861.1401415,27
1689047861.1901374,27
1689047861.2401366,27
1689047861.2901413,27
1689047861.3401425,34
1689047861.3741417,50
1689047861.424137,57
1689047861.4741414,55
1689047861.5241413,49
1689047861.5741363,43
1689047861.624141,40
1689047861.6741414,40
1689047861.7241366,40
1689047861.7741408,37
1689047861.8241365,33
1689047861.8741405,30
1689047861.9241402,27
1689047861.9741511,26
1689047862.0241406,25
1689047862.074137,25
1689047862.1241362,24
1689047862.17414,25
1689047862.2241356,36
1689047862.2741356,47
1689047862.3241398,52
1689047862.35714,40
1689047862.4071355,34
1689047862.4571357,29
1689047862.507139,29
1689047862.557135,32
1689047862.6071346,30
1689047862.6571398,24
1689047862.7071342,17
1689047862.7571387,12
1689047862.807139,10
1689047862.8571346,8
1689047862.9071345,8
1689047862.957134,6
1689047863.0071383,4
1689047863.0571392,7
1689047863.1071384,31
1689047863.1571383,51
1689047863.2071333,45
1689047863.2571337,34
1689047863.3071344,26
1689047863.3431382,24
1689047863.3901339,25
1689047863.440138,28
1689047863.49014,26
1689047863.5401378,19
1689047863.5901442,13
1689047863.6401334,9
1689047863.6901393,7
1689047863.740137,8
1689047863.791138,9
1689047863.8411374,8
1689047863.8911374,14
1689047863.9411383,35
1689047863.9911368,47
1689047864.0411372,38
1689047864.0911326,26
1689047864.1411326,19
1689047864.1911366,20
1689047864.2411368,26
1689047864.291133,27
1689047864.3411365,22
1689047864.3741362,16
1689047864.4241362,13
1689047864.4741366,11
1689047864.5241392,12
1689047864.574136,14
1689047864.6241317,15
1689047864.6741312,27
1689047864.7241313,46
1689047864.7741365,49
1689047864.8241315,40
1689047864.8741355,32
1689047864.9241314,29
1689047864.9741302,31
1689047865.024131,33
1689047865.074135,31
1689047865.1241305,25
1689047865.174135,21
1689047865.2241347,19
1689047865.2741318,19
1689047865.3241305,20
1689047865.3571305,21
1689047865.4071348,20
1689047865.4591296,22
1689047865.507135,40
1689047865.5571291,55
1689047865.6071293,51
1689047865.65713,42
1689047865.7071342,38
1689047865.75713,36
1689047865.807047,36
1689047865.8576024,36
1689047865.907603,33
1689047865.9576023,28
1689047866.0076025,24
1689047866.0575979,22
1689047866.1076021,21
1689047866.1576095,21
1689047866.207597,21
1689047866.2576017,20
1689047866.3075986,19
1689047866.3435981,20
1689047866.3915975,29
1689047866.4416013,49
1689047866.4915977,55
1689047866.5415964,46
1689047866.5915966,40
1689047866.641597,38
1689047866.6916015,37
1689047866.741601,37
1689047866.7915976,36
1689047866.841596,32
1689047866.8915966,28
1689047866.9416006,25
1689047866.991601,23
1689047867.0415964,23
1689047867.0916004,22
1689047867.1416006,21
1689047867.191604,19
1689047867.2416003,17
1689047867.2915955,16
1689047867.3415954,18
1689047867.3745952,35
1689047867.4245949,49
1689047867.474632,56
1689047867.5245194,46
1689047867.5745199,40
1689047867.6245153,37
1689047867.6745193,37
1689047867.7245195,39
1689047867.774515,39
1689047867.8245144,35
1689047867.874521,30
1689047867.9245188,27
1689047867.9745188,25
1689047868.0245185,25
1689047868.0745184,25
1689047868.1245184,25
1689047868.1745143,24
1689047868.2245183,22
1689047868.2745183,23
1689047868.3245182,39
1689047868.3585138,56
1689047868.4085133,56
1689047868.458514,46
1689047868.5085173,40
1689047868.558514,36
1689047868.608513,38
1689047868.6585176,40
1689047868.7085173,40
1689047868.75852,36
1689047868.8076646,33
1689047868.8577843,30
1689047868.9077842,29
1689047868.9577835,28
1689047869.0078003,27
1689047869.0578644,26
1689047869.107799,26
1689047869.1588566,25
1689047869.2078023,28
1689047869.257799,46
1689047869.3077989,67
1689047869.343799,63
1689047869.3908021,57
1689047869.4407983,52
1689047869.4907973,50
1689047869.5407994,51
1689047869.590798,52
1689047869.6407976,49
1689047869.6908019,43
1689047869.740797,39
1689047869.7907982,34
1689047869.8407986,32
1689047869.8908014,31
1689047869.9408028,31
1689047869.9908006,31
1689047870.0407977,30
1689047870.090797,29
1689047870.1408014,31
1689047870.1908014,48
1689047870.2408016,67
1689047870.2908008,67
1689047870.3408005,59
1689047870.3738108,53
1689047870.4237967,52
1689047870.4737964,52
1689047870.5238006,54
1689047870.573796,52
1689047870.6237974,46
1689047870.6737962,40
1689047870.723796,37
1689047870.773796,35
1689047870.8237967,33
1689047870.8737957,32
1689047870.9239523,29
1689047870.97442,27
1689047871.024425,25
1689047871.0744207,26
1689047871.124425,41
1689047871.1744208,58
1689047871.2244208,72
1689047871.279421,64
1689047871.3274238,52
1689047871.3614209,47
1689047871.4114199,47
1689047871.4724207,49
1689047871.5224252,49
1689047871.572419,43
1689047871.6224194,38
1689047871.6724188,33
1689047871.72242,29
1689047871.772505,27
1689047871.822505,26
1689047871.8725038,25
1689047871.922505,23
1689047871.972564,21
1689047872.0225084,27
1689047872.0725043,50
1689047872.1225042,69
1689047872.1725085,64
1689047872.2225077,52
1689047872.277505,43
1689047872.3255036,41
1689047872.3585036,45
1689047872.4085076,46
1689047872.4585083,42
1689047872.5085084,35
1689047872.5585048,29
1689047872.6085038,24
1689047872.6585078,21
1689047872.7085037,21
1689047872.7585082,21
1689047872.8085027,20
1689047872.8585632,25
1689047872.9085033,47
1689047872.9725068,65
1689047873.022502,58
1689047873.0725067,46
