timestamp,bvp
1689046434.5281694,44
1689046434.578169,43
1689046434.6281695,40
1689046434.6781695,38
1689046434.7281687,35
1689046434.7781942,34
1689046434.8437588,33
1689046434.892755,32
1689046434.9427547,31
1689046434.9927542,29
1689046435.0427544,28
1689046435.092759,28
1689046435.1317544,39
1689046435.1767535,51
1689046435.2280476,58
1689046435.2780936,55
1689046435.3280935,51
1689046435.3780928,49
1689046435.428093,46
1689046435.478093,44
1689046435.5280926,43
1689046435.578093,41
1689046435.6280928,38
1689046435.6780927,35
1689046435.7290926,32
1689046435.7790942,31
1689046435.8290918,29
1689046435.8790915,28
1689046435.9290924,27
1689046435.9790926,25
1689046436.029092,24
1689046436.0790915,22
1689046436.1290915,24
1689046436.1620924,40
1689046436.2120912,52
1689046436.2620912,59
1689046436.3120918,55
1689046436.3620927,50
1689046436.4120905,47
1689046436.4620914,44
1689046436.5120919,42
1689046436.5620906,41
1689046436.6120908,40
1689046436.662091,36
1689046436.7120914,31
1689046436.7627363,27
1689046436.8127396,24
1689046436.8627346,22
1689046436.9120781,21
1689046436.962272,19
1689046437.0127268,17
1689046437.0627313,16
1689046437.1127317,29
1689046437.145727,51
1689046437.1957269,59
1689046437.2457318,57
1689046437.2957315,50
1689046437.3457308,44
1689046437.3957312,40
1689046437.445732,40
1689046437.4957273,40
1689046437.5457304,38
1689046437.5957263,33
1689046437.6457303,27
1689046437.6957264,22
1689046437.7453072,19
1689046437.7953117,17
1689046437.8453066,16
1689046437.8953066,17
1689046437.9453108,35
1689046437.9958901,59
1689046438.0458908,64
1689046438.0958908,58
1689046438.1318896,51
1689046438.179892,47
1689046438.2298944,42
1689046438.2798896,42
1689046438.32989,43
1689046438.37989,40
1689046438.4298897,36
1689046438.4799044,31
1689046438.5298898,27
1689046438.5798905,25
1689046438.6298935,23
1689046438.6808896,22
1689046438.729889,29
1689046438.7798886,50
1689046438.8298895,66
1689046438.8798883,65
1689046438.929889,59
1689046438.9794462,54
1689046439.0295985,50
1689046439.0797706,48
1689046439.1297703,47
1689046439.1627703,45
1689046439.2127738,42
1689046439.2627726,37
1689046439.31277,33
1689046439.36277,30
1689046439.4127707,28
1689046439.4627697,28
1689046439.5127707,28
1689046439.5627694,38
1689046439.6127696,56
1689046439.6627693,63
1689046439.7127683,60
1689046439.7627702,56
1689046439.8127735,52
1689046439.8767729,47
1689046439.9267683,46
1689046439.9767725,45
1689046440.026769,41
1689046440.0767725,37
1689046440.1267724,33
1689046440.1597729,32
1689046440.2097692,33
1689046440.259773,33
1689046440.309772,32
1689046440.3597722,31
1689046440.4097674,40
1689046440.4597723,56
1689046440.5097678,62
1689046440.5597675,59
1689046440.609767,55
1689046440.6597672,52
1689046440.7097716,49
1689046440.759767,47
1689046440.8097715,46
1689046440.8597674,43
1689046440.9097664,40
1689046440.9597714,37
1689046441.0097678,35
1689046441.0597708,34
1689046441.1097667,33
1689046441.143771,32
1689046441.1937664,31
1689046441.2437706,32
1689046441.2937665,42
1689046441.3447707,56
1689046441.3937657,60
1689046441.4437654,56
1689046441.4937665,53
1689046441.5437665,51
1689046441.593766,47
1689046441.6437702,46
1689046441.6937654,44
1689046441.74377,41
1689046441.793765,38
1689046441.843768,36
1689046441.8937693,34
1689046441.9437644,33
1689046441.9937654,32
1689046442.0437696,31
1689046442.0937662,30
1689046442.1327643,29
1689046442.1827648,28
1689046442.2357647,34
1689046442.285764,49
1689046442.343834,59
1689046442.3937652,57
1689046442.4437654,53
1689046442.4937646,51
1689046442.5437686,48
1689046442.5937636,46
1689046442.6437638,44
1689046442.6934986,42
1689046442.743499,39
1689046442.7933052,36
1689046442.8573022,33
1689046442.907305,32
1689046442.957301,31
1689046443.0073006,29
1689046443.0573046,28
1689046443.1073008,26
1689046443.1403048,25
1689046443.1903002,24
1689046443.2403,22
1689046443.2900498,32
1689046443.3431902,51
1689046443.393989,61
1689046443.4435022,58
1689046443.4931812,53
1689046443.543855,49
1689046443.5938547,46
1689046443.6438546,45
1689046443.693854,44
1689046443.7438545,41
1689046443.7938542,38
1689046443.8438587,34
1689046443.8938541,32
1689046443.9438534,30
1689046443.9938552,28
1689046444.0438552,27
1689046444.0938544,25
1689046444.132854,22
1689046444.1768582,21
1689046444.226853,18
1689046444.2768605,19
1689046444.3268528,40
1689046444.376854,57
1689046444.4268534,61
1689046444.4768531,57
1689046444.5268545,51
1689046444.5768526,45
1689046444.6268573,43
1689046444.676858,43
1689046444.726853,42
1689046444.776814,38
1689046444.8268096,33
1689046444.8768137,28
1689046444.9268095,25
1689046444.9768093,24
1689046445.0268097,23
1689046445.0768158,21
1689046445.1268137,19
1689046445.1658094,17
1689046445.2138133,19
1689046445.263809,31
1689046445.3138087,57
1689046445.3638105,67
1689046445.4138088,61
1689046445.4638088,51
1689046445.5138075,45
1689046445.563311,42
1689046445.6131852,42
1689046445.6631846,40
1689046445.713185,36
1689046445.7631848,29
1689046445.8131852,23
1689046445.8631842,19
1689046445.9131856,16
1689046445.9631848,14
1689046446.013185,12
1689046446.0631847,11
1689046446.1131845,27
1689046446.1461842,58
1689046446.1961846,71
1689046446.246184,69
1689046446.296184,61
1689046446.3461843,54
1689046446.396184,48
1689046446.4461837,47
1689046446.496184,46
1689046446.5461836,43
1689046446.596183,37
1689046446.646109,31
1689046446.6965783,26
1689046446.7464628,24
1689046446.7964582,23
1689046446.8464627,23
1689046446.896459,22
1689046446.9464629,28
1689046446.9964638,52
1689046447.0460377,72
1689046447.097038,71
1689046447.1320384,64
1689046447.1790378,60
1689046447.229038,55
1689046447.279038,53
1689046447.3290377,51
1689046447.3790379,50
1689046447.4290373,46
1689046447.4790373,40
1689046447.5290372,37
1689046447.5790365,35
1689046447.6290364,33
1689046447.6800368,32
1689046447.729037,30
1689046447.7790365,29
1689046447.8290358,40
1689046447.8790364,59
1689046447.9290366,65
1689046447.9790359,61
1689046448.0290358,56
1689046448.0790362,52
1689046448.1290364,49
1689046448.1630375,47
1689046448.2130358,46
1689046448.2640362,44
1689046448.3130357,40
1689046448.3630357,36
1689046448.413035,33
1689046448.4630356,30
1689046448.5140357,29
1689046448.5630348,28
1689046448.6130352,27
1689046448.6630347,26
1689046448.7132664,39
1689046448.7632806,57
1689046448.8132846,62
1689046448.8632805,57
1689046448.91328,51
1689046448.9632804,47
1689046449.0132809,45
1689046449.0632856,43
1689046449.1132805,42
1689046449.146285,38
1689046449.19628,34
1689046449.2462842,29
1689046449.2962801,24
1689046449.3462808,22
1689046449.3962839,20
1689046449.4462838,18
1689046449.496279,16
1689046449.5462835,16
1689046449.5962799,34
1689046449.6462836,57
1689046449.6962805,62
1689046449.7462835,55
1689046449.7962785,48
1689046449.8462791,42
1689046449.8962789,41
1689046449.946283,42
1689046449.9962783,40
1689046450.046278,35
1689046450.0962787,30
1689046450.1326177,25
1689046450.1808307,22
1689046450.2301924,19
1689046450.2809675,18
1689046450.3309991,17
1689046450.3799958,16
1689046450.429997,19
1689046450.4799972,40
1689046450.5299966,64
1689046450.5810034,67
1689046450.6299963,59
1689046450.6800005,52
1689046450.7299962,46
1689046450.7800004,45
1689046450.8309965,45
1689046450.88,42
1689046450.9299953,38
1689046450.9800003,33
1689046451.029995,29
1689046451.0799997,26
1689046451.1299956,25
1689046451.163996,25
1689046451.2139988,24
1689046451.263,23
1689046451.3129995,32
1689046451.3639953,52
1689046451.4132133,65
1689046451.4632661,62
1689046451.5132668,55
1689046451.5632613,50
1689046451.613265,46
1689046451.663261,45
1689046451.7132652,45
1689046451.7632663,42
1689046451.8132653,39
1689046451.8772607,35
1689046451.9272604,34
1689046451.977265,33
1689046452.0272613,33
1689046452.0772598,33
1689046452.1272602,32
1689046452.1602602,39
1689046452.2132645,48
1689046452.2632675,61
1689046452.3132596,60
1689046452.3632593,55
1689046452.4132595,51
1689046452.4633048,48
1689046452.5133035,48
1689046452.5633,47
1689046452.613304,45
1689046452.6632993,41
1689046452.7133033,39
1689046452.763299,37
1689046452.8133032,36
1689046452.8632991,35
1689046452.9133034,35
1689046452.9632993,34
1689046453.0132995,32
1689046453.063298,36
1689046453.1135855,49
1689046453.1471937,58
1689046453.1978207,57
1689046453.2478247,66
1689046453.2978203,58
1689046453.3478203,53
1689046453.3978245,51
1689046453.4478195,50
1689046453.49782,47
1689046453.5478196,40
1689046453.5974205,37
1689046453.6474085,31
1689046453.6974082,28
1689046453.7474074,26
1689046453.797412,25
1689046453.8474133,24
1689046453.8974078,22
1689046453.9474118,27
1689046453.997408,51
1689046454.0474114,72
1689046454.0974116,71
1689046454.1334114,61
1689046454.1804075,55
1689046454.2304063,50
1689046454.2804112,48
1689046454.3304064,49
1689046454.3804111,46
1689046454.4304068,40
1689046454.480406,34
1689046454.5314064,29
1689046454.5804117,26
1689046454.6304104,25
1689046454.6804056,23
1689046454.7301958,22
1689046454.7806733,20
1689046454.8306682,21
1689046454.8806684,42
1689046454.9306679,68
1689046454.9806678,71
1689046455.0306723,60
1689046455.0806675,50
1689046455.130673,45
1689046455.1636672,45
1689046455.2136674,47
1689046455.263668,45
1689046455.3136718,40
1689046455.363673,33
1689046455.4136717,27
1689046455.463667,24
1689046455.5136714,22
1689046455.5636673,20
1689046455.6136715,20
1689046455.6636672,18
1689046455.7136662,16
1689046455.7637358,32
1689046455.8134003,68
1689046455.8640454,71
1689046455.9132454,60
1689046455.963245,49
1689046456.0132449,43
1689046456.0632458,45
1689046456.1132452,47
1689046456.147246,44
1689046456.2022443,40
1689046456.2522442,32
1689046456.3022444,26
1689046456.3612454,23
1689046456.411249,21
1689046456.4612446,21
1689046456.5112443,20
1689046456.561244,19
1689046456.6112487,33
1689046456.6612449,61
1689046456.7112482,74
1689046456.7612436,66
1689046456.8112438,53
1689046456.8752441,44
1689046456.9252453,46
1689046456.9772437,49
1689046457.0272439,47
1689046457.0772433,41
1689046457.1272476,35
1689046457.1662433,27
1689046457.2142437,25
1689046457.2642431,24
1689046457.3142474,24
1689046457.3642423,23
1689046457.4142601,24
1689046457.4642444,44
1689046457.5142405,69
1689046457.564241,72
1689046457.614244,61
1689046457.6642401,50
1689046457.71424,45
1689046457.7642465,46
1689046457.814244,50
1689046457.864244,49
1689046457.9142394,43
1689046457.9649537,35
1689046458.014304,31
1689046458.0642998,29
1689046458.1143036,28
1689046458.1473594,27
1689046458.203301,26
1689046458.2532992,31
1689046458.3036864,57
1689046458.361686,72
1689046458.4116905,66
1689046458.4616861,54
1689046458.5116854,44
1689046458.5616853,43
1689046458.611685,47
1689046458.6616898,47
1689046458.71169,40
1689046458.761685,34
1689046458.8116896,27
1689046458.8616855,24
1689046458.9116848,23
1689046458.961685,23
1689046459.01169,22
1689046459.0616853,28
1689046459.1116893,51
1689046459.1446896,69
1689046459.2006848,65
1689046459.2506845,52
1689046459.3006904,42
1689046459.358689,40
1689046459.4086888,44
1689046459.458684,44
1689046459.508689,39
1689046459.5586882,32
1689046459.6086884,26
1689046459.658686,23
1689046459.7083552,22
1689046459.7586343,22
1689046459.8088565,21
1689046459.8587914,31
1689046459.9087956,56
1689046459.9587953,71
1689046460.0087907,65
1689046460.0587914,52
1689046460.1087918,44
1689046460.1427948,43
1689046460.197795,46
1689046460.2477908,46
1689046460.2977948,40
1689046460.3477945,33
1689046460.3977907,28
1689046460.4477944,26
1689046460.4977908,26
1689046460.547794,25
1689046460.5977938,26
1689046460.647794,41
1689046460.69779,64
1689046460.7477903,70
1689046460.7977936,61
1689046460.8477893,50
1689046460.897884,45
1689046460.9478908,47
1689046460.99789,49
1689046461.04789,46
1689046461.0970352,40
1689046461.1330361,34
1689046461.18104,31
1689046461.231036,30
1689046461.28104,29
1689046461.3310351,29
1689046461.386036,29
1689046461.4360354,41
1689046461.4860353,62
1689046461.5360396,70
1689046461.5860393,62
1689046461.636036,54
1689046461.6860352,50
1689046461.7368107,50
1689046461.78648,51
1689046461.836484,48
1689046461.8864844,41
1689046461.9364798,37
1689046461.9864838,33
1689046462.036479,32
1689046462.086484,31
1689046462.1334832,29
1689046462.1724837,28
1689046462.2224796,32
1689046462.2724833,51
1689046462.3224835,67
1689046462.378478,64
1689046462.4284782,54
1689046462.4784796,47
1689046462.5284786,44
1689046462.578479,45
1689046462.6284783,43
1689046462.6784825,39
1689046462.7284777,33
1689046462.7784846,28
1689046462.828478,25
1689046462.878482,24
1689046462.928478,23
1689046462.978482,21
1689046463.0284781,19
1689046463.0784822,33
1689046463.128478,57
1689046463.1664782,65
1689046463.2144773,60
1689046463.264482,50
1689046463.3144815,44
1689046463.3644812,42
1689046463.4144812,43
1689046463.4644775,42
1689046463.514477,37
1689046463.5644813,30
1689046463.614481,25
1689046463.664476,21
1689046463.7144809,18
1689046463.7644763,16
1689046463.8144772,13
1689046463.864481,10
1689046463.9144804,8
1689046463.9644756,28
1689046464.0144806,59
1689046464.0644763,69
1689046464.1144893,59
1689046464.1474895,48
1689046464.2034893,42
1689046464.2535145,40
1689046464.303517,40
1689046464.361515,40
1689046464.411515,33
1689046464.461515,24
1689046464.5115142,18
1689046464.5615144,14
1689046464.6115193,13
1689046464.6615138,12
1689046464.7115135,11
1689046464.7615182,8
1689046464.8115187,21
1689046464.8615148,53
1689046464.9115179,73
1689046464.961518,66
1689046465.0115144,53
1689046465.061514,43
1689046465.1115136,41
1689046465.1455178,44
1689046465.1955175,44
1689046465.245518,40
1689046465.2955177,31
1689046465.3455172,23
1689046465.3955183,17
1689046465.445517,15
1689046465.4955137,16
1689046465.5455134,16
1689046465.5965133,15
1689046465.6495135,34
1689046465.698514,68
1689046465.7485125,81
1689046465.7985125,72
1689046465.8485165,62
1689046465.8985176,53
1689046465.9485161,48
1689046465.9985123,49
1689046466.0485163,46
1689046466.098512,40
1689046466.134516,31
1689046466.1815157,27
1689046466.2315118,22
1689046466.2815118,21
1689046466.3315158,21
1689046466.3815162,18
1689046466.4315116,14
1689046466.4815161,32
1689046466.531736,67
1689046466.5813193,82
1689046466.6313193,76
1689046466.6813147,68
1689046466.7313201,60
1689046466.781314,53
1689046466.8314369,50
1689046466.8818967,48
1689046466.9318979,42
1689046466.9819007,34
1689046467.0319004,27
1689046467.0818985,24
1689046467.1319008,23
1689046467.1649077,22
1689046467.2149122,22
1689046467.264913,18
1689046467.3142917,19
1689046467.368329,44
1689046467.4203286,75
1689046467.4703243,82
1689046467.5203295,75
1689046467.5703292,69
1689046467.6203284,61
1689046467.6703284,53
1689046467.7203238,50
1689046467.7703235,46
1689046467.8213284,39
1689046467.870328,31
1689046467.920324,26
1689046467.9703252,24
1689046468.0203276,22
1689046468.070328,21
1689046468.120328,19
1689046468.153323,16
1689046468.2033274,13
1689046468.2533236,17
1689046468.3033226,45
1689046468.3623223,77
1689046468.412327,80
1689046468.4623225,73
1689046468.512323,66
1689046468.5623393,57
1689046468.6123388,51
1689046468.662339,48
1689046468.712335,44
1689046468.7623343,37
1689046468.8123345,30
1689046468.8623345,26
1689046468.91234,23
1689046468.9623334,21
1689046469.0123339,20
1689046469.062334,18
1689046469.112339,15
1689046469.1453333,11
1689046469.195336,12
1689046469.246338,35
1689046469.2963336,70
1689046469.3453376,82
1689046469.395338,77
1689046469.4453373,71
1689046469.4953372,63
1689046469.5453346,55
1689046469.5953376,51
1689046469.645337,49
1689046469.6953328,43
1689046469.7453325,36
1689046469.7957015,30
1689046469.8454413,26
1689046469.8954587,24
1689046469.9454591,22
1689046469.995455,20
1689046470.0454545,17
1689046470.0954547,15
1689046470.1344552,12
1689046470.1784542,11
1689046470.2284584,32
1689046470.2784605,73
1689046470.3284585,83
1689046470.378454,79
1689046470.429454,72
1689046470.479458,65
1689046470.5294547,57
1689046470.579458,53
1689046470.6294582,50
1689046470.6794534,44
1689046470.7294536,37
1689046470.779454,31
1689046470.8294528,27
1689046470.8794575,25
1689046470.9294534,23
1689046470.9794574,20
1689046471.0294585,17
1689046471.0794525,15
1689046471.1294577,12
1689046471.162457,12
1689046471.2154582,26
1689046471.2654521,68
1689046471.3154526,82
1689046471.3654518,77
1689046471.4154568,70
1689046471.465512,64
1689046471.515452,56
1689046471.5658839,52
1689046471.615043,49
1689046471.665038,43
1689046471.7150385,37
1689046471.7650428,32
1689046471.815039,29
1689046471.8658683,28
1689046471.9158688,27
1689046471.9658687,24
1689046472.0158734,21
1689046472.0658677,19
1689046472.1158729,17
1689046472.1488726,25
1689046472.2048779,43
1689046472.2548683,80
1689046472.3049386,85
1689046472.3598726,78
1689046472.4098723,70
1689046472.4598675,64
1689046472.5095508,58
1689046472.5595472,55
1689046472.609547,51
1689046472.659547,44
1689046472.7095473,36
1689046472.7595456,31
1689046472.80955,28
1689046472.8595464,26
1689046472.909547,23
1689046472.9595468,21
1689046473.0095506,18
1689046473.0595505,16
1689046473.1095505,16
1689046473.1435497,34
1689046473.1935458,44
1689046473.2435496,78
1689046473.293547,76
1689046473.3455455,67
1689046473.395545,61
1689046473.4455492,56
1689046473.4955475,52
1689046473.5465462,49
1689046473.5955455,44
1689046473.645549,38
1689046473.6955445,33
1689046473.7455456,27
1689046473.7955503,24
1689046473.8595502,22
1689046473.909545,20
1689046473.9595447,17
1689046474.0095441,15
1689046474.0595458,12
1689046474.109548,19
1689046474.1435483,50
1689046474.204548,79
1689046474.2545438,80
1689046474.3045478,71
1689046474.3625476,63
1689046474.4125447,57
1689046474.462544,52
1689046474.5125473,50
1689046474.5625436,46
1689046474.6125443,39
1689046474.6625433,31
1689046474.7125473,26
1689046474.762542,24
1689046474.8125446,22
1689046474.8625422,20
1689046474.9125466,18
1689046474.9625425,15
1689046475.0125444,12
1689046475.0625467,15
1689046475.112544,43
1689046475.1475432,76
1689046475.2015424,81
1689046475.2515464,71
1689046475.3015466,62
1689046475.3625422,56
1689046475.4125464,51
1689046475.462542,50
1689046475.512543,45
1689046475.562542,38
1689046475.6125417,30
1689046475.6625419,25
1689046475.712542,21
1689046475.7625406,18
1689046475.8125467,15
1689046475.8625453,11
1689046475.9125412,7
1689046475.962545,4
1689046476.0125408,16
1689046476.0625412,55
1689046476.112541,82
1689046476.1465447,77
1689046476.2015448,67
1689046476.2515404,58
1689046476.3015447,53
1689046476.3625445,51
1689046476.4125407,49
1689046476.4625404,43
1689046476.5125403,35
1689046476.5628567,28
1689046476.6128564,24
1689046476.6628597,23
1689046476.7128563,22
1689046476.7628603,20
1689046476.8128557,17
1689046476.8628557,12
1689046476.91286,18
1689046476.9658606,51
1689046477.0158553,81
1689046477.065859,79
1689046477.1158555,66
1689046477.148855,57
1689046477.19886,53
1689046477.2488592,51
1689046477.2988555,51
1689046477.3488593,46
1689046477.3988588,39
1689046477.4488566,31
1689046477.4988585,26
1689046477.5488546,23
1689046477.5988545,22
1689046477.6488583,21
1689046477.6988552,20
1689046477.748854,16
1689046477.800858,23
1689046477.8488555,53
1689046477.8988538,78
1689046477.948858,74
1689046477.998854,61
1689046478.0498579,52
1689046478.0998585,49
1689046478.1358576,49
1689046478.1828575,49
1689046478.2328548,44
1689046478.2828534,37
1689046478.3328571,29
1689046478.3828528,24
1689046478.4328542,22
1689046478.4828534,22
1689046478.5328577,21
1689046478.582854,20
1689046478.6328568,16
1689046478.6828525,26
1689046478.7328522,58
1689046478.7828517,79
1689046478.857853,73
1689046478.907852,54
1689046478.9578524,50
1689046479.0078533,50
1689046479.0578518,50
1689046479.1078563,44
1689046479.1408522,36
1689046479.1968558,31
1689046479.2468557,25
1689046479.2968519,23
1689046479.3478556,22
1689046479.3968525,22
1689046479.446855,20
1689046479.4968514,16
1689046479.5468512,27
1689046479.596855,58
1689046479.646851,77
1689046479.696851,70
1689046479.746855,57
1689046479.7968547,48
1689046479.846855,46
1689046479.8968549,47
1689046479.9468505,45
1689046479.99685,39
1689046480.0468504,31
1689046480.0968504,25
1689046480.135854,21
1689046480.1798542,19
1689046480.229854,18
1689046480.27985,18
1689046480.3298504,16
1689046480.3798497,22
1689046480.42985,50
1689046480.4798486,77
1689046480.52985,76
1689046480.5798538,63
1689046480.6298532,53
1689046480.6798542,49
1689046480.7298496,49
1689046480.77985,49
1689046480.829849,42
1689046480.879853,34
1689046480.9298496,28
1689046480.9798532,25
1689046481.0298493,24
1689046481.0798528,23
1689046481.1298525,21
1689046481.1688497,19
1689046481.2158487,28
1689046481.2658486,56
1689046481.315854,74
1689046481.3658519,66
1689046481.4158518,53
1689046481.4658532,46
1689046481.515855,45
1689046481.5658484,47
1689046481.6168485,45
1689046481.6668472,38
1689046481.7168484,30
1689046481.766852,26
1689046481.8168473,25
1689046481.8668478,25
1689046481.9168477,25
1689046481.966896,23
1689046482.0168965,27
1689046482.066891,49
1689046482.1169684,72
1689046482.149896,69
1689046482.2039866,57
1689046482.2539976,47
1689046482.3040855,42
1689046482.3631518,44
1689046482.4131513,44
1689046482.4631553,39
1689046482.513151,31
1689046482.5631504,24
1689046482.6131544,20
1689046482.6631541,19
1689046482.7131548,19
1689046482.7631555,18
1689046482.8131602,17
1689046482.8631501,33
1689046482.913154,60
1689046482.9631517,66
1689046483.0131543,54
1689046483.0631502,41
1689046483.113157,36
1689046483.1691566,40
1689046483.2181492,44
1689046483.2681534,40
1689046483.3181484,32
1689046483.368153,24
1689046483.4181492,21
1689046483.4681492,19
1689046483.5181537,18
1689046483.5681484,17
1689046483.6181493,40
1689046483.668148,67
1689046483.718155,68
1689046483.7681525,54
1689046483.8181484,41
1689046483.8681486,37
1689046483.9181504,40
1689046483.9681478,43
1689046484.0181482,37
1689046484.0681496,25
1689046484.118152,13
1689046484.1521473,4
1689046484.2021518,1
1689046484.2521515,0
1689046484.3021476,14
1689046484.3601468,52
1689046484.4101474,72
1689046484.4601474,59
1689046484.5101473,41
1689046484.5601473,30
1689046484.6101465,31
1689046484.6601477,38
1689046484.7101462,36
1689046484.7601511,25
1689046484.8101468,14
1689046484.8601463,6
1689046484.9101503,4
1689046484.9601476,7
1689046485.0101507,38
1689046485.0601459,76
1689046485.1101503,81
1689046485.1441505,66
1689046485.1941452,55
1689046485.2441516,43
1689046485.295146,41
1689046485.346145,45
1689046485.3971455,43
1689046485.4461496,35
1689046485.496152,25
1689046485.5461452,18
1689046485.5961492,15
1689046485.6461449,14
1689046485.6981454,32
1689046485.7481492,66
1689046485.7961457,80
1689046485.8601491,70
1689046485.9101448,55
1689046485.9601486,48
1689046486.010145,46
1689046486.060149,47
1689046486.1101491,42
1689046486.1441462,34
1689046486.1941447,28
1689046486.2441483,21
1689046486.2941449,18
1689046486.3461442,18
1689046486.396148,16
1689046486.448145,22
1689046486.498144,51
1689046486.5461478,76
1689046486.596143,73
1689046486.6461475,62
1689046486.6961477,54
1689046486.7461476,47
1689046486.7961493,45
1689046486.8461473,44
1689046486.896145,40
1689046486.946144,31
1689046486.9961486,23
1689046487.046147,17
1689046487.0971482,17
1689046487.1351428,20
1689046487.1831431,20
1689046487.2331467,19
1689046487.2831426,40
1689046487.3331432,70
1689046487.3831465,77
1689046487.433142,69
1689046487.4831464,62
1689046487.5331461,56
1689046487.5831468,52
1689046487.6331463,51
1689046487.683142,48
1689046487.7329807,41
1689046487.7834108,34
1689046487.833414,28
1689046487.8834145,24
1689046487.933414,22
1689046487.98341,21
1689046488.0334136,20
1689046488.083414,17
1689046488.1334136,28
1689046488.1714137,59
1689046488.2194152,75
1689046488.2694135,75
1689046488.3194091,66
1689046488.3804138,57
1689046488.430413,51
1689046488.4804132,48
1689046488.5304089,47
1689046488.5804126,42
1689046488.6304128,35
1689046488.6804104,29
1689046488.7304077,25
1689046488.7804086,22
1689046488.830755,20
1689046488.8807502,20
1689046488.9307537,19
1689046488.9808497,17
1689046489.0301461,38
1689046489.0799503,68
1689046489.1302762,77
1689046489.163924,71
1689046489.2139282,65
1689046489.2638981,58
1689046489.3138945,51
1689046489.3638983,48
1689046489.4138978,47
1689046489.4638972,42
1689046489.5138936,35
1689046489.5638974,28
1689046489.6138942,23
1689046489.6638973,21
1689046489.7138927,20
1689046489.763894,18
1689046489.8138957,16
1689046489.8778925,13
1689046489.9278932,35
1689046489.9778929,69
1689046490.027892,80
1689046490.0778928,72
1689046490.127892,64
1689046490.1608932,56
1689046490.2118938,52
1689046490.261892,49
1689046490.3118944,47
1689046490.3638926,41
1689046490.4138916,33
1689046490.4638958,25
1689046490.5138962,21
1689046490.5638912,19
1689046490.6138973,18
1689046490.6638958,17
1689046490.7139003,14
1689046490.763895,10
1689046490.813891,20
1689046490.8638957,56
1689046490.9138906,81
1689046490.9638917,78
1689046491.0138955,68
1689046491.0638952,60
1689046491.1138916,52
1689046491.1478908,49
1689046491.19889,48
1689046491.2478907,45
1689046491.2978897,38
1689046491.3478947,29
1689046491.397891,23
1689046491.4478896,20
1689046491.4978893,18
1689046491.5478902,16
1689046491.5978904,14
1689046491.6478899,10
1689046491.6978908,12
1689046491.7498906,43
1689046491.797889,78
1689046491.8479276,82
1689046491.8972845,72
1689046491.947289,63
1689046491.9972885,55
1689046492.0472841,50
1689046492.0972834,49
1689046492.1362882,45
1689046492.1803489,40
1689046492.2302895,30
1689046492.2802954,22
1689046492.3302882,18
1689046492.380283,17
1689046492.4302878,17
1689046492.480283,18
1689046492.5302837,20
1689046492.5802834,23
1689046492.6302824,43
1689046492.68076,76
1689046492.7305443,88
1689046492.780545,81
1689046492.8305507,71
1689046492.8805444,64
1689046492.930545,58
1689046492.9805446,55
1689046493.030549,52
1689046493.0805488,45
1689046493.1305487,37
1689046493.1655455,30
1689046493.214545,27
1689046493.2645435,25
1689046493.3146033,22
1689046493.3643548,20
1689046493.414354,17
1689046493.4643588,13
1689046493.5143547,12
1689046493.5663586,40
1689046493.6163547,78
1689046493.6663601,80
1689046493.716354,69
1689046493.7663586,59
1689046493.816361,53
1689046493.866358,50
1689046493.9163544,49
1689046493.966416,44
1689046494.016358,36
1689046494.0663583,28
1689046494.117358,22
1689046494.1503575,20
1689046494.2003574,19
1689046494.250358,18
1689046494.3003573,16
1689046494.3503535,13
1689046494.4003525,9
1689046494.4503531,24
1689046494.5003598,62
1689046494.5503576,83
1689046494.6003568,76
1689046494.6503522,63
1689046494.700352,55
1689046494.750352,51
1689046494.7999012,50
1689046494.8502145,48
1689046494.900209,40
1689046494.9502084,31
1689046495.0002136,23
1689046495.0502093,19
1689046495.1002135,17
1689046495.136213,16
1689046495.1832092,15
1689046495.2332082,12
1689046495.2832086,8
1689046495.3332126,12
1689046495.3862085,47
1689046495.4362125,82
1689046495.4862084,80
1689046495.5362127,66
1689046495.5862088,54
1689046495.636212,49
1689046495.6862075,50
1689046495.736503,50
1689046495.7868524,44
1689046495.8368514,34
1689046495.886852,25
1689046495.9369202,20
1689046495.9868517,18
1689046496.0368512,17
1689046496.0868556,16
1689046496.136853,13
1689046496.1868563,9
1689046496.2368515,30
1689046496.286851,70
1689046496.3478515,85
1689046496.3979106,70
1689046496.447851,55
1689046496.4978552,48
1689046496.5478501,48
1689046496.597855,50
1689046496.6479256,46
1689046496.6978502,37
1689046496.7478507,27
1689046496.7978506,21
1689046496.8478549,19
1689046496.8978546,19
1689046496.9478507,19
1689046496.997855,16
1689046497.0508544,18
1689046497.1008542,48
1689046497.1368494,80
1689046497.1818492,83
1689046497.231854,70
1689046497.2818499,56
1689046497.3318489,48
1689046497.3838542,49
1689046497.4338489,51
1689046497.48385,47
1689046497.5338535,38
1689046497.5838494,28
1689046497.6338532,22
1689046497.6838555,20
1689046497.7338483,19
1689046497.7838533,19
1689046497.833853,16
1689046497.883853,21
1689046497.9338531,52
1689046497.9838488,81
1689046498.0338528,77
1689046498.0838532,61
1689046498.1338527,49
1689046498.1838477,48
1689046498.2338533,50
1689046498.2848485,49
1689046498.3348527,40
1689046498.3848479,31
1689046498.4348521,23
1689046498.4848473,20
1689046498.534852,20
1689046498.584848,20
1689046498.634852,18
1689046498.684854,18
1689046498.7348516,44
1689046498.7848518,76
1689046498.8488472,79
1689046498.8977726,62
1689046498.9477727,51
1689046498.9997733,47
1689046499.0477684,50
1689046499.0977726,50
1689046499.1367724,43
1689046499.1818447,37
1689046499.2317722,27
1689046499.2817726,24
1689046499.331772,23
1689046499.3817718,24
1689046499.431772,23
1689046499.4817867,21
1689046499.5318687,37
1689046499.5818636,68
1689046499.6318684,80
1689046499.6818683,69
1689046499.7318807,55
1689046499.781877,48
1689046499.8318765,48
1689046499.881877,50
1689046499.9314852,46
1689046499.981471,38
1689046500.0309632,30
1689046500.0813582,26
1689046500.1309025,25
1689046500.1647155,25
1689046500.2143862,24
1689046500.2638884,23
1689046500.3145494,39
1689046500.364288,67
1689046500.4140747,77
1689046500.4640803,67
1689046500.5140743,55
1689046500.5640805,49
1689046500.6140792,49
1689046500.664075,51
1689046500.7140746,46
1689046500.7640786,39
1689046500.8140738,32
1689046500.8640738,28
1689046500.9144802,27
1689046500.9646642,27
1689046501.014664,26
1689046501.06466,32
1689046501.114659,54
1689046501.148739,73
1689046501.206883,68
1689046501.2568789,55
1689046501.3068776,47
1689046501.3648775,45
1689046501.4146643,47
1689046501.46424,44
1689046501.5146043,38
1689046501.5645888,30
1689046501.614589,26
1689046501.664593,25
1689046501.7145889,25
1689046501.7645926,24
1689046501.8145926,27
1689046501.8645923,48
1689046501.9145877,70
1689046501.9645925,68
1689046502.0145874,55
1689046502.0645921,45
1689046502.1145883,42
1689046502.1485872,44
1689046502.1982832,43
1689046502.2484753,39
1689046502.2984755,30
1689046502.3490045,23
1689046502.398173,19
1689046502.4486365,16
1689046502.4986415,13
1689046502.548637,7
1689046502.599642,5
1689046502.652636,33
1689046502.70068,66
1689046502.7501483,67
1689046502.8001482,53
1689046502.8501494,41
1689046502.900154,38
1689046502.9501543,40
1689046503.0001595,40
1689046503.0511487,35
1689046503.1009083,25
1689046503.1374538,17
1689046503.1838923,15
1689046503.2348962,15
1689046503.2848969,15
1689046503.334891,13
1689046503.3848915,27
1689046503.434891,59
1689046503.4848917,73
1689046503.5348918,62
1689046503.5848906,45
1689046503.6348906,36
1689046503.6842897,37
1689046503.7339895,41
1689046503.7839885,39
1689046503.8342283,29
1689046503.8842285,20
1689046503.934294,15
1689046503.9845273,15
1689046504.0342472,16
1689046504.0842462,16
1689046504.1342504,38
1689046504.1872456,78
1689046504.2372503,76
1689046504.287246,63
1689046504.3482473,50
1689046504.3952467,43
1689046504.4462461,45
1689046504.49625,46
1689046504.546245,39
1689046504.5962505,29
1689046504.6462455,22
1689046504.6962495,19
1689046504.7459767,20
1689046504.7967346,20
1689046504.8487332,27
1689046504.898733,56
1689046504.9487343,81
1689046504.9987328,78
1689046505.048336,67
1689046505.0986722,58
1689046505.1376672,51
1689046505.184667,49
1689046505.2346673,48
1689046505.2846744,43
1689046505.3346715,36
1689046505.3846714,29
1689046505.4346716,26
1689046505.4846673,26
1689046505.5346713,25
1689046505.5846672,23
1689046505.6346712,34
1689046505.6846664,61
1689046505.7343981,77
1689046505.7846506,72
1689046505.8346555,65
1689046505.884651,57
1689046505.934655,49
1689046505.9846501,46
1689046506.0346506,45
1689046506.0846553,39
1689046506.1346552,32
1689046506.1726508,28
1689046506.2204287,26
1689046506.270527,26
1689046506.320523,25
1689046506.3815222,23
1689046506.4315233,23
1689046506.4815218,47
1689046506.531522,71
1689046506.5815272,73
1689046506.6315265,67
1689046506.6815217,61
1689046506.7315261,53
1689046506.7815216,47
1689046506.831526,46
1689046506.8815222,43
1689046506.931526,37
1689046506.9815269,31
1689046507.031522,27
1689046507.0815208,26
1689046507.131526,25
1689046507.1655254,24
1689046507.215521,23
1689046507.265521,20
1689046507.3150506,23
1689046507.369348,45
1689046507.4183486,70
1689046507.4683526,70
1689046507.5183477,64
1689046507.568353,58
1689046507.6183474,50
1689046507.6683474,46
1689046507.7183537,45
1689046507.7683485,40
1689046507.818488,37
1689046507.8680878,31
1689046507.9185092,28
1689046507.9685044,26
1689046508.0185041,25
1689046508.0685089,25
1689046508.118509,24
1689046508.1515095,22
1689046508.2015047,24
1689046508.2515047,43
1689046508.3015084,68
1689046508.3515038,74
1689046508.4017227,69
1689046508.4518604,64
1689046508.5018601,58
1689046508.551866,52
1689046508.6018605,50
1689046508.6518602,47
1689046508.7018614,41
1689046508.7518601,36
1689046508.8018615,33
1689046508.8518639,31
1689046508.9018598,29
1689046508.9518645,27
1689046509.0018601,26
1689046509.0518603,24
1689046509.1018639,22
1689046509.1378653,25
1689046509.184859,37
1689046509.2348642,60
1689046509.2848651,69
1689046509.3348637,64
1689046509.3848588,60
1689046509.4348633,55
1689046509.4848638,49
1689046509.534859,47
1689046509.5848594,44
1689046509.6348593,40
1689046509.6848636,34
1689046509.7348602,31
1689046509.7848587,29
1689046509.834859,28
1689046509.8848586,27
1689046509.9348578,25
1689046509.9848578,22
1689046510.0348585,19
1689046510.0848627,18
1689046510.1348648,27
1689046510.168862,53
1689046510.2188601,66
1689046510.2688634,68
1689046510.318858,61
1689046510.3688576,57
1689046510.4179943,52
1689046510.4679863,47
1689046510.5179884,46
1689046510.567986,42
1689046510.6184783,37
1689046510.6685004,31
1689046510.7182343,28
1689046510.7682345,27
1689046510.8182344,25
1689046510.868239,23
1689046510.918234,22
1689046510.9683247,21
1689046511.0185223,20
1689046511.0685174,21
1689046511.118518,39
1689046511.151518,64
1689046511.2015176,70
1689046511.2515798,65
1689046511.3014145,58
1689046511.3511403,54
1689046511.4013615,50
1689046511.4513607,48
1689046511.5013652,46
1689046511.5513613,40
1689046511.60136,35
1689046511.651361,30
1689046511.7014213,29
1689046511.7513652,28
1689046511.8013608,26
1689046511.850923,25
1689046511.9012337,23
1689046511.9516416,21
1689046512.001646,19
1689046512.051649,30
1689046512.1016455,57
1689046512.1376538,72
1689046512.1856463,69
1689046512.2356417,60
1689046512.2856407,54
1689046512.3356454,50
1689046512.385641,48
1689046512.4356456,46
1689046512.4856403,42
1689046512.5356407,36
1689046512.5856411,31
1689046512.6356404,29
1689046512.6856446,28
1689046512.7356446,26
1689046512.7856407,25
1689046512.8496408,23
1689046512.8996398,20
1689046512.9496393,25
1689046512.9999053,48
1689046513.049267,69
1689046513.0992715,67
1689046513.1372662,57
1689046513.1832669,51
1689046513.232271,47
1689046513.282271,45
1689046513.332267,44
1689046513.3822708,41
1689046513.4322708,35
1689046513.4822664,28
1689046513.5322704,24
1689046513.5822656,23
1689046513.6322653,23
1689046513.682266,23
1689046513.7322652,20
1689046513.7822697,17
1689046513.832265,30
1689046513.8822658,63
1689046513.9322662,72
1689046513.9822657,62
1689046514.0322647,51
1689046514.0822656,45
1689046514.1322694,44
1689046514.1652644,46
1689046514.215269,45
1689046514.265269,40
1689046514.315265,31
1689046514.3652687,26
1689046514.4152863,24
1689046514.4652689,24
1689046514.515716,24
1689046514.5657203,22
1689046514.6157203,18
1689046514.665716,31
1689046514.7157161,59
1689046514.765717,71
1689046514.8157156,60
1689046514.8657162,46
1689046514.9157162,39
1689046514.9657152,40
1689046515.0157194,42
1689046515.0657156,40
1689046515.1157148,31
1689046515.1497197,21
1689046515.2042704,15
1689046515.2546177,10
1689046515.3046129,4
1689046515.365617,0
1689046515.4156127,0
1689046515.4656131,0
1689046515.5156128,32
1689046515.5656126,68
1689046515.615617,64
1689046515.665612,47
1689046515.7156126,35
1689046515.7656164,32
1689046515.8156168,38
1689046515.8656123,38
1689046515.9156172,29
1689046515.9656122,16
1689046516.0156121,7
1689046516.0656161,4
1689046516.1156116,5
1689046516.1496162,5
1689046516.1996157,3
1689046516.2496116,11
1689046516.3016157,47
1689046516.3496113,77
1689046516.3996153,70
1689046516.4496112,52
1689046516.4996111,38
1689046516.5496154,35
1689046516.5996156,42
1689046516.649613,42
1689046516.6996117,33
1689046516.7496104,21
1689046516.799627,12
1689046516.8497844,9
1689046516.8997889,9
1689046516.9497848,9
1689046516.999785,15
1689046517.0497885,50
1689046517.0997846,83
1689046517.138788,79
1689046517.182785,69
1689046517.2327847,56
1689046517.2827835,48
1689046517.3326857,46
1689046517.3822143,47
1689046517.4322195,42
1689046517.4822192,32
1689046517.5322187,22
1689046517.5822144,16
1689046517.6322186,14
1689046517.6822135,14
1689046517.732263,14
1689046517.7822587,34
1689046517.8322744,74
1689046517.8820155,83
1689046517.9324288,74
1689046517.9824288,63
1689046518.0324345,54
1689046518.082424,48
1689046518.1324282,48
1689046518.166424,46
1689046518.2164288,41
1689046518.2664237,34
1689046518.316428,27
1689046518.366522,24
1689046518.4165173,24
1689046518.466535,23
1689046518.5165303,24
1689046518.5665307,45
1689046518.6165345,73
1689046518.6665301,77
1689046518.7175293,68
1689046518.7665293,60
1689046518.8165352,53
1689046518.8805296,49
1689046518.930534,47
1689046518.98053,44
1689046519.0305336,37
1689046519.0805295,30
1689046519.1305337,26
1689046519.1635292,25
1689046519.2165296,25
1689046519.2665334,23
1689046519.3165333,22
1689046519.36653,39
1689046519.416533,67
1689046519.4665287,77
1689046519.5165284,71
1689046519.566528,65
1689046519.616708,58
1689046519.6664639,52
1689046519.716318,50
1689046519.7662294,47
1689046519.8162293,40
1689046519.8662252,33
1689046519.9162252,28
1689046519.966226,26
1689046520.016225,25
1689046520.066229,24
1689046520.116224,22
1689046520.149224,23
1689046520.2052498,40
1689046520.2549913,68
1689046520.3052964,75
1689046520.3662958,68
1689046520.4168153,61
1689046520.4666286,54
1689046520.5166333,49
1689046520.5666332,48
1689046520.6166337,44
1689046520.6666288,37
1689046520.7166288,31
1689046520.7666347,29
1689046520.8162205,27
1689046520.8662245,27
1689046520.9162211,26
1689046520.9662244,23
1689046521.0162246,20
1689046521.0662246,35
1689046521.1162193,63
1689046521.1692202,77
1689046521.2192204,71
1689046521.269224,64
1689046521.3192189,57
1689046521.374219,50
1689046521.4242246,48
1689046521.4742196,45
1689046521.5237248,38
1689046521.5740416,31
1689046521.624292,28
1689046521.6742878,26
1689046521.7242928,25
1689046521.7742877,23
1689046521.824292,19
1689046521.874287,11
1689046521.9242883,2
1689046521.9762866,5
1689046522.027291,38
1689046522.0742872,72
1689046522.124287,75
1689046522.1632912,67
1689046522.2102866,61
1689046522.260286,52
1689046522.310287,47
1689046522.363637,46
1689046522.4136379,42
1689046522.4636366,36
1689046522.5136368,29
1689046522.5636427,26
1689046522.6136422,24
1689046522.663637,24
1689046522.7136369,22
1689046522.7636409,20
1689046522.813637,16
1689046522.877636,18
1689046522.9276357,45
1689046522.9776363,75
1689046523.0276406,78
1689046523.0776362,69
1689046523.1276402,62
1689046523.1606355,54
1689046523.2106369,50
1689046523.2606351,48
1689046523.310636,45
1689046523.3666396,39
1689046523.4166415,30
1689046523.466635,25
1689046523.516388,23
1689046523.5667055,22
1689046523.6167011,21
1689046523.6667004,20
1689046523.7163277,19
1689046523.7665267,19
1689046523.8165092,31
1689046523.8665087,62
1689046523.9165094,83
1689046523.9665136,79
1689046524.0165093,70
1689046524.0665085,63
1689046524.116514,56
1689046524.1495092,53
1689046524.205508,51
1689046524.2555132,46
1689046524.3055086,38
1689046524.3665133,32
1689046524.4165087,29
1689046524.4665127,27
1689046524.5165086,25
1689046524.5665123,23
1689046524.6165128,20
1689046524.66651,17
1689046524.7165082,14
1689046524.766512,35
1689046524.816507,69
1689046524.8665118,80
1689046524.9165087,71
1689046524.9665074,63
1689046525.0165117,57
1689046525.066507,52
1689046525.1165073,49
1689046525.1505075,46
1689046525.2055073,40
1689046525.2555063,34
1689046525.3055065,31
1689046525.3665109,29
1689046525.416506,27
1689046525.466506,25
1689046525.516507,22
1689046525.566511,20
1689046525.6165068,17
1689046525.6665242,23
1689046525.7165234,53
1689046525.7665203,80
1689046525.8165243,77
1689046525.8665192,65
1689046525.9165232,57
1689046525.9665234,53
1689046526.016345,51
1689046526.0663483,49
1689046526.1163507,43
1689046526.1503491,36
1689046526.2053442,30
1689046526.2553442,26
1689046526.3053432,25
1689046526.366348,24
1689046526.4163432,21
1689046526.466344,18
1689046526.5163498,13
1689046526.5663483,13
1689046526.618897,40
1689046526.6688929,74
1689046526.718892,76
1689046526.768897,62
1689046526.8188922,49
1689046526.8688982,45
1689046526.9188964,46
1689046526.9688923,47
1689046527.0188916,41
1689046527.0693746,31
1689046527.118998,23
1689046527.1689932,19
1689046527.218993,19
1689046527.2689924,19
1689046527.318997,18
1689046527.3689923,14
1689046527.418997,9
1689046527.4689927,25
1689046527.5189939,63
1689046527.5689967,80
1689046527.6189923,67
1689046527.6690583,49
1689046527.7189963,40
1689046527.7689922,41
1689046527.8189962,47
1689046527.8689914,45
1689046527.9189918,35
1689046527.968992,25
1689046528.0189922,20
1689046528.068991,19
1689046528.1189957,20
1689046528.1529956,22
1689046528.2029958,21
1689046528.2529955,17
1689046528.3029914,27
1689046528.3539915,62
1689046528.4029958,84
1689046528.4529915,73
1689046528.5029905,53
1689046528.5529923,41
1689046528.6029904,42
1689046528.6529953,49
1689046528.7029905,49
1689046528.7529907,40
1689046528.8030534,28
1689046528.8529942,19
1689046528.9029965,16
1689046528.953147,17
1689046529.0034509,17
1689046529.0533934,15
1689046529.1033928,23
1689046529.13949,57
1689046529.1894891,79
1689046529.2394898,80
1689046529.289493,60
1689046529.350489,42
1689046529.397493,39
1689046529.447493,45
1689046529.498551,48
1689046529.5494878,40
1689046529.597984,26
1689046529.6490798,13
1689046529.6981633,5
1689046529.7481725,4
1689046529.7981768,6
1689046529.8641715,7
1689046529.9171717,40
1689046529.9671724,79
1689046530.0171719,80
1689046530.067172,57
1689046530.1171758,40
1689046530.1501758,21
1689046530.2051754,27
1689046530.2551768,40
1689046530.3061707,36
1689046530.3671706,21
1689046530.4171715,6
1689046530.4671755,0
1689046530.517171,0
1689046530.5671754,0
1689046530.617175,0
1689046530.6671755,10
1689046530.7171748,60
1689046530.7671711,91
1689046530.8171706,57
1689046530.8671749,44
1689046530.9171762,35
1689046530.9671752,37
1689046531.0171707,42
1689046531.0671704,41
1689046531.117174,35
1689046531.15017,28
1689046531.2061698,24
1689046531.2561865,23
1689046531.3061817,22
1689046531.3671856,23
1689046531.4177198,43
1689046531.4671204,66
1689046531.5171204,66
1689046531.5671208,55
1689046531.6171203,44
1689046531.6671195,41
1689046531.717124,45
1689046531.767124,46
1689046531.817119,42
1689046531.8671198,36
1689046531.9171236,30
1689046531.9681194,28
1689046532.0171192,28
1689046532.0671191,29
1689046532.116957,43
1689046532.1506257,62
1689046532.2006528,67
1689046532.2506566,62
1689046532.3006678,55
1689046532.3516572,49
1689046532.4006515,47
1689046532.4506521,47
1689046532.5006564,46
1689046532.5506566,41
1689046532.6007044,37
1689046532.6506555,34
1689046532.700652,33
1689046532.7503996,33
1689046532.8000448,33
1689046532.851044,44
1689046532.900372,58
1689046532.9503865,60
1689046533.0003865,56
1689046533.050386,51
1689046533.1003861,48
1689046533.1393905,45
1689046533.1863902,44
1689046533.2363913,43
1689046533.2863848,40
1689046533.33663,37
1689046533.386428,35
1689046533.4364245,34
1689046533.4864283,33
1689046533.5364282,32
1689046533.586424,35
1689046533.6364236,47
1689046533.6864247,57
1689046533.7364242,55
1689046533.7864277,64
1689046533.8364234,57
1689046533.8864233,50
1689046533.9364278,47
1689046533.9864228,45
1689046534.0364277,40
1689046534.086428,32
1689046534.1364248,27
1689046534.1744232,25
1689046534.222427,24
1689046534.2724233,23
1689046534.3224227,21
1689046534.3811297,18
1689046534.4316046,33
1689046534.481083,61
1689046534.531083,73
1689046534.5810828,67
1689046534.6310823,62
1689046534.681083,55
1689046534.7310858,48
1689046534.7810826,46
1689046534.831087,43
1689046534.8810825,37
1689046534.9310825,31
1689046534.9810822,28
1689046535.0310822,27
1689046535.0810819,27
1689046535.131082,26
1689046535.1640854,24
1689046535.214086,22
1689046535.2640994,20
1689046535.3140953,39
1689046535.3670993,66
1689046535.4170992,73
1689046535.4670951,68
1689046535.5170996,63
1689046535.5670943,57
1689046535.617095,53
1689046535.667099,53
1689046535.717094,51
1689046535.7670937,45
1689046535.8174028,40
1689046535.8670375,39
1689046535.9176462,38
1689046535.9676416,37
1689046536.017642,35
1689046536.067646,33
1689046536.1176422,29
1689046536.152643,35
1689046536.204641,47
1689046536.2536457,70
1689046536.3036416,71
1689046536.3536453,65
1689046536.4036415,60
1689046536.4536452,54
1689046536.5036454,50
1689046536.5536847,48
1689046536.6036851,44
1689046536.653686,38
1689046536.7036808,34
1689046536.7536805,31
1689046536.8036804,29
1689046536.8536844,27
1689046536.9036891,26
1689046536.9536846,24
1689046537.0036845,22
1689046537.0536802,23
1689046537.1036842,40
1689046537.1396801,63
1689046537.1876805,68
1689046537.2376788,67
1689046537.2876842,62
1689046537.3376799,57
1689046537.3876793,51
1689046537.4376798,48
1689046537.4876785,46
1689046537.5376797,40
1689046537.5876834,35
1689046537.6376832,31
1689046537.6876786,29
1689046537.737679,27
1689046537.7876828,25
1689046537.8376782,23
1689046537.887683,21
1689046537.937678,18
1689046537.9876785,17
1689046538.0376792,34
1689046538.0876822,61
1689046538.1376824,69
1689046538.1706822,62
1689046538.2206945,58
1689046538.2701154,53
1689046538.320604,48
1689046538.3703747,46
1689046538.4203742,44
1689046538.4703777,39
1689046538.5203779,32
1689046538.570373,27
1689046538.6200273,25
1689046538.6702573,24
1689046538.7202582,23
1689046538.770254,20
1689046538.8202593,18
1689046538.8842533,15
1689046538.934258,14
1689046538.984253,31
1689046539.0342534,64
1689046539.0842574,70
1689046539.1342533,62
1689046539.1672533,54
1689046539.2172573,50
1689046539.2672575,46
1689046539.317257,45
1689046539.3672707,43
1689046539.4172704,37
1689046539.467266,30
1689046539.5172656,26
1689046539.5672705,24
1689046539.6172662,23
1689046539.667271,22
1689046539.7172658,20
1689046539.7672698,17
1689046539.817265,14
1689046539.8672652,21
1689046539.9172697,48
1689046539.9672704,69
1689046540.0172696,64
1689046540.0672698,54
1689046540.1172695,47
1689046540.1512697,44
1689046540.2012694,44
1689046540.2512693,43
1689046540.3012652,38
1689046540.351269,29
1689046540.4012659,22
1689046540.4512691,20
1689046540.5012686,19
1689046540.5512655,19
1689046540.6012645,18
1689046540.651265,15
1689046540.7012649,10
1689046540.7522683,18
1689046540.8022687,50
1689046540.8512685,73
1689046540.9012682,67
1689046540.9512682,53
1689046541.0012634,44
1689046541.051268,42
1689046541.1012638,44
1689046541.140265,41
1689046541.1842635,36
1689046541.2342682,24
1689046541.2842674,17
1689046541.3343236,11
1689046541.3842676,7
1689046541.4342628,2
1689046541.4842625,0
1689046541.5342634,0
1689046541.5839355,0
1689046541.6343842,0
1689046541.6844444,45
1689046541.7344434,81
1689046541.7838755,71
1689046541.8345897,49
1689046541.8845906,32
1689046541.93459,29
1689046541.98459,38
1689046542.034605,38
1689046542.0846093,27
1689046542.134609,13
1689046542.1686049,3
1689046542.2186089,0
1689046542.2686048,0
1689046542.3186085,0
1689046542.3686042,0
1689046542.4186044,0
1689046542.4686053,0
1689046542.5186083,43
1689046542.568072,93
1689046542.6179545,97
1689046542.6679566,58
1689046542.7179601,45
1689046542.767957,37
1689046542.8179562,40
1689046542.86796,43
1689046542.9179606,39
1689046542.9679604,31
1689046543.0179613,24
1689046543.0679603,21
1689046543.1179597,20
1689046543.1509597,20
1689046543.2009556,20
1689046543.2509558,20
1689046543.3019598,37
1689046543.3509593,64
1689046543.4009564,74
1689046543.4509544,65
1689046543.500955,54
1689046543.5509546,45
1689046543.6009543,43
1689046543.6509564,44
1689046543.700981,42
1689046543.750982,36
1689046543.8009768,30
1689046543.8509767,26
1689046543.9009788,25
1689046543.9509811,25
1689046544.0009763,23
1689046544.0519755,25
1689046544.1019762,48
1689046544.1399763,70
1689046544.1899755,70
1689046544.2399762,62
1689046544.28998,54
1689046544.3509798,48
1689046544.4019752,47
1689046544.45098,47
1689046544.5009801,42
1689046544.5509794,35
1689046544.600976,29
1689046544.6509748,26
1689046544.7009747,28
1689046544.7509794,29
1689046544.8019745,29
1689046544.851979,41
1689046544.900979,61
1689046544.9509788,66
1689046545.0009794,60
1689046545.0509744,54
1689046545.1009746,48
1689046545.1399739,46
1689046545.1869783,45
1689046545.2371578,44
1689046545.2870536,40
1689046545.3370535,35
1689046545.387073,31
1689046545.4370723,30
1689046545.4870727,29
1689046545.5370686,28
1689046545.5870678,33
1689046545.6370726,49
1689046545.687068,60
1689046545.7370794,58
1689046545.787751,52
1689046545.8378487,47
1689046545.8868537,44
1689046545.9368534,43
1689046545.9878488,43
1689046546.036854,40
1689046546.086853,36
1689046546.136849,33
1689046546.1748486,32
1689046546.222908,32
1689046546.2728481,32
1689046546.322899,31
1689046546.3849823,39
1689046546.4356294,52
1689046546.4856298,57
1689046546.5356293,66
1689046546.5856338,57
1689046546.6356342,49
1689046546.685634,44
1689046546.7356298,44
1689046546.7856286,42
1689046546.8356287,36
1689046546.885629,29
1689046546.935629,25
1689046546.9856334,25
1689046547.035629,24
1689046547.0856285,23
1689046547.1356287,20
1689046547.1906328,45
1689046547.2406285,64
1689046547.2906275,74
1689046547.351399,68
1689046547.39925,61
1689046547.4492452,54
1689046547.499246,50
1689046547.5492496,50
1689046547.5992453,47
1689046547.6492493,42
1689046547.6992495,39
1689046547.7492452,35
1689046547.7992506,33
1689046547.849245,32
1689046547.8992448,30
1689046547.9492488,31
1689046547.9992445,45
1689046548.0492442,65
1689046548.0992486,66
1689046548.1402445,60
1689046548.1822486,56
1689046548.2322438,51
1689046548.2822435,47
1689046548.332244,46
1689046548.385244,44
1689046548.4352438,40
1689046548.4852436,35
1689046548.5352433,33
1689046548.5852485,32
1689046548.6352434,31
1689046548.6852438,30
1689046548.7352428,29
1689046548.7852426,27
1689046548.8352478,36
1689046548.8852472,60
1689046548.9352472,68
1689046548.985247,64
1689046549.0352426,60
1689046549.0852468,56
1689046549.1352427,52
1689046549.1682425,50
1689046549.2186515,49
1689046549.2685962,45
1689046549.3187726,40
1689046549.3679423,37
1689046549.4183517,35
1689046549.4683495,34
1689046549.5183516,32
1689046549.5683475,30
1689046549.6183515,29
1689046549.668352,27
1689046549.7183514,35
1689046549.7683465,56
1689046549.818351,68
1689046549.882351,61
1689046549.9323468,57
1689046549.9823508,53
1689046550.0323467,50
1689046550.0823467,49
1689046550.132351,45
1689046550.1653516,40
1689046550.2153459,39
1689046550.2653508,36
1689046550.31535,34
1689046550.368345,31
1689046550.4183497,29
1689046550.468346,27
1689046550.51835,25
1689046550.5683453,24
1689046550.6183498,37
1689046550.6683505,59
1689046550.7183495,66
1689046550.7683456,59
1689046550.8183503,54
1689046550.8683455,50
1689046550.9183493,48
1689046550.9683504,47
1689046551.0183492,43
1689046551.0683444,38
1689046551.1183507,33
1689046551.1523497,31
1689046551.2023447,31
1689046551.2523491,30
1689046551.3024368,28
1689046551.3524723,26
1689046551.4024765,23
1689046551.4536614,26
1689046551.5036566,46
1689046551.5519314,64
1689046551.602169,61
1689046551.6521728,52
1689046551.7021728,47
1689046551.7521746,45
1689046551.8021684,45
1689046551.8521729,44
1689046551.9021733,39
1689046551.952172,33
1689046552.0021682,29
1689046552.052175,27
1689046552.1021724,27
1689046552.1411672,26
1689046552.1881669,24
1689046552.2381675,20
1689046552.2881668,17
1689046552.338168,34
1689046552.3881712,57
1689046552.4381685,60
1689046552.4881666,49
1689046552.538167,40
1689046552.5881681,37
1689046552.6381714,39
1689046552.6881673,39
1689046552.7381668,33
1689046552.7881708,25
1689046552.838173,18
1689046552.88818,15
1689046552.9381802,14
1689046552.9881804,13
1689046553.0381799,12
1689046553.0881839,9
1689046553.1379476,7
1689046553.1759481,31
1689046553.2239518,53
1689046553.2739525,67
1689046553.3239522,55
1689046553.3849473,37
1689046553.434947,28
1689046553.4849522,31
1689046553.5349476,35
1689046553.5849516,30
1689046553.6349475,17
1689046553.6849513,4
1689046553.7349474,0
1689046553.7849467,0
1689046553.835505,0
1689046553.8848653,0
1689046553.934861,0
1689046553.9848604,0
1689046554.037865,40
1689046554.0888605,79
1689046554.1378608,74
1689046554.1708608,52
1689046554.2208645,38
1689046554.2708652,26
1689046554.3208604,33
1689046554.370861,40
1689046554.4208612,35
1689046554.4708645,22
1689046554.5218604,11
1689046554.5708604,5
1689046554.6208642,2
1689046554.67186,2
1689046554.72086,2
1689046554.77086,12
1689046554.8208623,58
1689046554.8708615,96
1689046554.9208589,88
1689046554.970859,54
1689046555.0208592,44
1689046555.0708637,41
1689046555.1208584,43
1689046555.154863,43
1689046555.2048635,40
1689046555.2548585,35
1689046555.3057175,30
1689046555.3557055,27
1689046555.4048362,26
1689046555.4548318,27
1689046555.504836,29
1689046555.5548313,45
1689046555.6048312,66
1689046555.6548316,69
1689046555.7048354,61
1689046555.7548306,54
1689046555.8055627,49
1689046555.8551996,47
1689046555.9051998,48
1689046555.9551992,44
1689046556.0049286,39
1689046556.0552742,33
1689046556.1052742,30
1689046556.14127,30
1689046556.188274,29
1689046556.2374387,28
1689046556.288666,40
1689046556.3386102,58
1689046556.3886127,64
1689046556.4386127,59
1689046556.4886084,54
1689046556.5383582,49
1689046556.5883625,46
1689046556.638358,46
1689046556.6883638,45
1689046556.738358,41
1689046556.7886546,38
1689046556.838725,35
1689046556.888655,34
1689046556.9386551,34
1689046556.9886591,34
1689046557.038655,41
1689046557.088654,56
1689046557.1386566,58
1689046557.1716547,70
1689046557.221659,66
1689046557.2716587,59
1689046557.3226547,54
1689046557.372654,53
1689046557.4226584,51
1689046557.4726543,45
1689046557.5226583,40
1689046557.5726597,36
1689046557.6226532,34
1689046557.6726584,33
1689046557.7226534,32
1689046557.7726538,30
1689046557.8226538,40
1689046557.8726535,61
1689046557.9226577,69
1689046557.9726598,64
1689046558.0226529,60
1689046558.0726528,55
1689046558.122653,50
1689046558.1556575,48
1689046558.2056575,46
1689046558.2556539,42
1689046558.305653,38
1689046558.355657,35
1689046558.4056523,33
1689046558.4546518,32
1689046558.5054893,31
1689046558.5554922,30
1689046558.6054935,28
1689046558.6554916,30
1689046558.7054873,48
1689046558.7554877,64
1689046558.8054914,63
1689046558.8554912,59
1689046558.90508,55
1689046558.9550805,50
1689046559.005081,47
1689046559.0550842,46
1689046559.1050804,42
1689046559.1410842,39
1689046559.2050843,35
1689046559.2550793,34
1689046559.305084,32
1689046559.3550837,31
1689046559.40508,29
1689046559.45508,27
1689046559.5050795,26
1689046559.555079,35
1689046559.6050847,53
1689046559.6550848,60
1689046559.7050793,55
1689046559.7550902,51
1689046559.805091,47
1689046559.8551493,43
1689046559.9050908,42
1689046559.9550915,40
1689046560.0050948,36
1689046560.0550911,32
1689046560.10509,29
1689046560.1410954,26
1689046560.1910894,24
1689046560.2410905,22
1689046560.2910893,20
1689046560.341679,18
1689046560.3917193,15
1689046560.4417233,18
1689046560.4917188,39
1689046560.5417235,54
1689046560.5917184,51
1689046560.6417189,44
1689046560.691723,39
1689046560.7417233,36
1689046560.7917185,37
1689046560.8557189,36
1689046560.905718,29
1689046560.955719,23
1689046561.0057185,21
1689046561.0557175,21
1689046561.1057231,21
1689046561.1417177,21
1689046561.1917174,18
1689046561.2417173,18
1689046561.2917275,37
1689046561.3527222,57
1689046561.4027176,58
1689046561.4527216,51
1689046561.5027175,41
1689046561.5527165,39
1689046561.6027892,40
1689046561.6522155,39
1689046561.7022114,34
1689046561.752211,28
1689046561.8022106,24
1689046561.8522153,23
1689046561.9022107,24
1689046561.9522107,24
1689046562.002211,22
1689046562.0542147,27
1689046562.1042144,50
1689046562.1412146,69
1689046562.1862106,69
1689046562.2362099,62
1689046562.2862103,56
1689046562.3362105,49
1689046562.3862143,46
1689046562.4362094,45
1689046562.4862158,41
1689046562.5362134,33
1689046562.5862808,26
1689046562.6367638,22
1689046562.6866724,20
1689046562.7360246,21
1689046562.7860723,21
1689046562.8360682,18
1689046562.8860676,17
1689046562.9360723,44
1689046562.9860673,71
1689046563.0360677,73
1689046563.0861077,66
1689046563.1361346,60
1689046563.1691744,52
1689046563.2191749,48
1689046563.269174,48
1689046563.319175,47
1689046563.3691697,42
1689046563.419169,37
1689046563.4691694,33
1689046563.5190098,32
1689046563.5691407,34
1689046563.619145,36
1689046563.6691446,36
1689046563.7191403,35
1689046563.76914,47
1689046563.8191404,71
1689046563.86914,79
1689046563.9191442,73
1689046563.96914,69
1689046564.0191402,64
1689046564.06914,58
1689046564.1191394,55
1689046564.1532173,52
1689046564.2041395,48
1689046564.2531438,41
1689046564.3031437,38
1689046564.3531437,35
1689046564.4031413,34
1689046564.4531393,32
1689046564.503143,30
1689046564.5531387,27
1689046564.6031392,26
1689046564.654143,40
1689046564.703139,65
1689046564.7531443,72
1689046564.8031392,66
1689046564.853138,62
1689046564.9037428,57
1689046564.95386,52
1689046565.003605,50
1689046565.0537934,46
1689046565.1037338,41
1689046565.1427386,36
1689046565.186735,33
1689046565.2367382,30
1689046565.2867386,29
1689046565.336733,27
1689046565.3865247,24
1689046565.4361105,21
1689046565.486231,18
1689046565.5362134,15
1689046565.5862176,38
1689046565.636218,65
1689046565.686213,70
1689046565.7362175,62
1689046565.786213,55
1689046565.8362136,50
1689046565.8862174,47
1689046565.936213,45
1689046565.986212,41
1689046566.0363293,34
1689046566.0864897,25
1689046566.1364884,19
1689046566.169489,14
1689046566.2194881,10
1689046566.2689962,5
1689046566.3196893,2
1689046566.369942,0
1689046566.420529,0
1689046566.4705255,0
1689046566.5205243,36
1689046566.5705287,71
1689046566.620529,68
1689046566.6705246,55
1689046566.7205284,43
1689046566.7697866,38
1689046566.8201602,39
1689046566.8701606,40
1689046566.920233,31
1689046566.970645,19
1689046567.020645,11
1689046567.0706408,5
1689046567.1206408,4
1689046567.1536446,3
1689046567.203646,2
1689046567.2536397,0
1689046567.3033419,11
1689046567.3568223,55
1689046567.4058225,85
1689046567.455827,73
1689046567.5058224,55
1689046567.5558262,40
1689046567.6058216,39
1689046567.6558254,46
1689046567.7058227,45
1689046567.756822,33
1689046567.8068213,20
1689046567.8558254,12
1689046567.9068217,10
1689046567.9558213,12
1689046568.005821,15
1689046568.0558252,15
1689046568.1058204,42
1689046568.1418252,85
1689046568.1918204,99
1689046568.2418208,93
1689046568.2918248,61
1689046568.3528247,56
1689046568.4028208,52
1689046568.4528246,52
1689046568.5028198,50
1689046568.5538201,45
1689046568.602825,40
1689046568.6538205,38
1689046568.7035043,37
1689046568.7533038,37
1689046568.8033042,36
1689046568.853304,35
1689046568.9033034,40
1689046568.9543037,55
1689046569.0033078,62
1689046569.0533075,59
1689046569.103308,54
1689046569.1423028,51
1689046569.1860602,49
1689046569.2365258,48
1689046569.2865217,47
1689046569.336521,43
1689046569.386521,40
1689046569.4365218,37
1689046569.4865212,35
1689046569.5365214,34
1689046569.5865214,34
1689046569.6365638,34
1689046569.6867507,32
1689046569.7366717,34
1689046569.7866845,46
1689046569.8366842,58
1689046569.8867686,55
1689046569.9358234,51
1689046569.9858227,48
1689046570.0360422,46
1689046570.08599,46
1689046570.1359696,44
1689046570.1699655,41
1689046570.2199655,39
1689046570.2699735,36
1689046570.3199692,33
1689046570.3699646,32
1689046570.4199693,32
1689046570.4699643,31
1689046570.5199883,32
1689046570.5699925,42
1689046570.619992,54
1689046570.6703207,54
1689046570.7206726,56
1689046570.7706678,47
1689046570.8207397,41
1689046570.870741,40
1689046570.9207363,41
1689046570.9707394,37
1689046571.0207365,28
1689046571.0707397,19
1689046571.1207392,11
1689046571.153739,4
1689046571.2037392,0
1689046571.2537386,0
1689046571.3037395,0
1689046571.358739,23
1689046571.4067338,70
1689046571.4567387,72
1689046571.506734,56
1689046571.5567336,40
1689046571.60674,32
1689046571.65674,35
1689046571.7067382,38
1689046571.7567341,30
1689046571.8067331,17
1689046571.8567386,6
1689046571.9067328,0
1689046571.956738,0
1689046572.0058608,1
1689046572.055865,1
1689046572.1058612,29
1689046572.1426513,71
1689046572.18965,83
1689046572.2392392,72
1689046572.2888513,50
1689046572.3388507,35
1689046572.3888516,36
1689046572.438855,42
1689046572.4888508,45
1689046572.53885,36
1689046572.5888553,22
1689046572.6388512,10
1689046572.68885,7
1689046572.739851,5
1689046572.7888508,4
1689046572.8538516,32
1689046572.9048493,83
1689046572.9528549,88
1689046573.0028498,72
1689046573.0528498,56
1689046573.1028497,45
1689046573.1418538,45
1689046573.1888492,48
1689046573.238849,42
1689046573.288904,29
1689046573.3385956,17
1689046573.3890965,10
1689046573.4397922,9
1689046573.4907858,9
1689046573.5407853,9
1689046573.5897899,40
1689046573.6397922,84
1689046573.6907916,95
1689046573.73979,62
1689046573.7907863,57
1689046573.8547857,53
1689046573.9037857,51
1689046573.9527895,51
1689046574.002785,50
1689046574.0537894,44
1689046574.1027894,40
1689046574.1427891,38
1689046574.19079,38
1689046574.2397895,38
1689046574.289789,37
1689046574.3407896,43
1689046574.3907855,55
1689046574.4407842,60
1689046574.4907851,72
1689046574.5397885,64
1689046574.590787,58
1689046574.6407835,54
1689046574.690785,51
1689046574.740784,49
1689046574.7905865,41
1689046574.8405888,35
1689046574.8905833,32
1689046574.9404814,31
1689046574.9903164,30
1689046575.0403209,28
1689046575.0903168,26
1689046575.140316,34
1689046575.173321,60
1689046575.2233202,75
1689046575.27332,74
1689046575.3233154,66
1689046575.3733199,60
1689046575.423315,54
1689046575.47332,50
1689046575.52332,48
1689046575.5733154,44
1689046575.6233149,38
1689046575.67332,34
1689046575.7233198,32
1689046575.7733192,31
1689046575.8233151,30
1689046575.8733149,27
1689046575.9233198,24
1689046575.9733195,35
1689046576.0233152,60
1689046576.073315,70
1689046576.1233144,62
1689046576.1573138,55
1689046576.2063134,51
1689046576.2563138,46
1689046576.3063142,44
1689046576.3563185,41
1689046576.4063187,36
1689046576.4563138,29
1689046576.506318,23
1689046576.5563135,17
1689046576.6063135,13
1689046576.656318,11
1689046576.706318,11
1689046576.7563176,9
1689046576.8063133,12
1689046576.8563128,42
1689046576.9063175,68
1689046576.9563148,64
1689046577.0063171,53
1689046577.0563173,45
1689046577.1063128,41
1689046577.1433132,41
1689046577.1903174,41
1689046577.240318,36
1689046577.2903128,27
1689046577.3403165,19
1689046577.3903124,16
1689046577.4403164,17
1689046577.4903164,18
1689046577.5403163,17
1689046577.5903118,12
1689046577.6403115,22
1689046577.6903121,54
1689046577.740104,73
1689046577.7900991,65
1689046577.8401759,53
1689046577.8901756,43
1689046577.9402878,40
1689046577.9902868,41
1689046578.0403543,40
1689046578.0903587,31
1689046578.140371,22
1689046578.1732075,16
1689046578.2229216,14
1689046578.2732008,13
1689046578.3231964,10
1689046578.373201,7
1689046578.4231966,28
1689046578.4732,62
1689046578.5231998,71
1689046578.5732,59
1689046578.6232536,49
1689046578.673253,41
1689046578.7235284,38
1689046578.7733426,38
1689046578.8234456,33
1689046578.8734415,22
1689046578.9234405,11
1689046578.9734404,3
1689046579.02344,0
1689046579.0734444,1
1689046579.1234448,1
1689046579.1574395,12
1689046579.2124443,37
1689046579.2624402,78
1689046579.3124447,84
1689046579.368444,72
1689046579.4184415,57
1689046579.4684398,47
1689046579.5184388,44
1689046579.5684388,43
1689046579.6184392,36
1689046579.6684449,25
1689046579.7177916,15
1689046579.7682521,9
1689046579.8186412,8
1689046579.8683898,8
1689046579.921686,10
1689046579.971439,40
1689046580.0211399,75
1689046580.0712748,78
1689046580.120908,65
1689046580.1543207,55
1689046580.2092175,40
1689046580.2589285,40
1689046580.3096871,42
1689046580.3709848,39
1689046580.4209862,27
1689046580.4717183,17
1689046580.5218272,12
1689046580.571054,11
1689046580.620871,11
1689046580.6716595,12
1689046580.7214653,40
1689046580.7707705,79
1689046580.8215628,86
1689046580.8717065,75
1689046580.9217799,61
1689046580.97112,54
1689046581.0212855,56
1689046581.0717454,57
1689046581.1209676,50
1689046581.1544223,42
1689046581.204592,39
1689046581.254592,35
1689046581.3037188,35
1689046581.3539453,33
1689046581.4045043,33
1689046581.4557533,50
1689046581.5040936,75
1689046581.5546288,77
1689046581.6038797,64
1689046581.6539824,50
1689046581.7045116,46
1689046581.7540712,51
1689046581.8047233,52
1689046581.8543813,45
1689046581.9045184,35
1689046581.954186,27
1689046582.004306,24
1689046582.0539854,24
1689046582.104304,24
1689046582.1435149,23
1689046582.1871843,23
1689046582.2405932,55
1689046582.290129,80
1689046582.3401878,75
1689046582.3898134,61
1689046582.4400747,50
1689046582.490635,48
1689046582.5405517,51
1689046582.590197,50
1689046582.6402986,43
1689046582.6900988,34
1689046582.7407324,28
1689046582.7902265,25
1689046582.8403056,24
1689046582.8905418,24
1689046582.940457,23
1689046582.989935,24
1689046583.04017,46
1689046583.089842,72
1689046583.1400018,72
1689046583.1781404,59
1689046583.2258563,51
1689046583.276292,45
1689046583.3264685,45
1689046583.3765762,47
1689046583.4261022,42
1689046583.4762008,35
1689046583.5266652,27
1689046583.5757952,23
1689046583.626262,19
1689046583.676034,17
1689046583.7266436,16
1689046583.7766476,13
1689046583.8266432,10
1689046583.8766475,25
1689046583.9266477,55
1689046583.9766436,66
1689046584.0266447,54
1689046584.0766475,39
1689046584.1266427,31
1689046584.1606436,34
1689046584.210647,38
1689046584.2606475,37
1689046584.3106468,28
1689046584.368658,16
1689046584.418663,1
1689046584.4686584,0
1689046584.518663,0
1689046584.5686626,0
1689046584.6186628,0
1689046584.6686623,0
1689046584.7186582,3
1689046584.7686586,45
1689046584.8186624,78
1689046584.8686574,66
1689046584.9186623,41
1689046584.9686623,21
1689046585.018662,20
1689046585.0686572,34
1689046585.1186574,40
1689046585.1526616,31
1689046585.202658,20
1689046585.2526615,5
1689046585.3026564,0
1689046585.3546615,0
1689046585.4046621,0
1689046585.4546733,0
1689046585.5076778,29
1689046585.5566776,75
1689046585.60372,84
1689046585.6547236,63
1689046585.7047336,38
1689046585.7547553,23
1689046585.805897,29
1689046585.8538418,40
1689046585.903844,38
1689046585.953837,25
1689046586.0038383,11
1689046586.053843,4
1689046586.1038413,2
1689046586.1428976,2
1689046586.1878374,6
1689046586.240843,52
1689046586.2908378,92
1689046586.3408415,88
1689046586.3908412,56
1689046586.4408412,49
1689046586.490836,45
1689046586.5408406,46
1689046586.5909455,46
1689046586.6414623,43
1689046586.6914613,38
1689046586.7414658,33
1689046586.7914672,31
1689046586.8414662,30
1689046586.8914614,32
1689046586.9414656,44
1689046586.9914613,60
1689046587.0414612,61
1689046587.091466,54
1689046587.1414604,51
1689046587.174465,47
1689046587.2244608,45
1689046587.2744653,45
1689046587.3244607,44
1689046587.3744648,40
1689046587.4244606,36
1689046587.4744596,34
1689046587.5244606,34
1689046587.5744643,35
1689046587.6244597,42
1689046587.6744595,56
1689046587.7244604,62
1689046587.774464,58
1689046587.8244598,53
1689046587.8744605,50
1689046587.9244642,49
1689046587.974464,49
1689046588.02446,48
1689046588.0744638,44
1689046588.1244605,40
1689046588.1574595,39
1689046588.207464,38
1689046588.2574592,38
1689046588.3074636,37
1689046588.3574638,43
1689046588.4075646,56
1689046588.4575574,60
1689046588.5075622,74
1689046588.557558,67
1689046588.607562,62
1689046588.657558,58
1689046588.7075617,57
1689046588.7575579,53
1689046588.8075616,44
1689046588.8575575,37
1689046588.9075618,33
1689046588.9575574,31
1689046589.007558,31
1689046589.0575614,30
1689046589.107557,28
1689046589.144562,34
1689046589.1915624,58
1689046589.2415612,77
1689046589.291557,73
1689046589.3415613,66
1689046589.3915613,61
1689046589.441557,57
1689046589.491558,55
1689046589.541557,52
1689046589.5915601,46
1689046589.6415563,40
1689046589.691612,34
1689046589.7415602,32
1689046589.791556,30
1689046589.841556,28
1689046589.8915608,25
1689046589.9415603,22
1689046589.9915566,19
1689046590.0415597,16
1689046590.0915594,30
1689046590.1415558,62
1689046590.174556,78
1689046590.2245555,74
1689046590.2745595,63
1689046590.324555,56
1689046590.3745594,51
1689046590.4245555,49
1689046590.4745564,47
1689046590.5245564,41
1689046590.5745587,33
1689046590.6246133,24
1689046590.67456,17
1689046590.724558,13
1689046590.7745552,11
1689046590.8245547,10
1689046590.8745582,7
1689046590.9245582,2
1689046590.974558,0
1689046591.0245533,0
1689046591.0745542,5
1689046591.124558,49
1689046591.158558,80
1689046591.2085536,77
1689046591.2585542,60
1689046591.3085575,50
1689046591.3585577,40
1689046591.4085577,39
1689046591.458556,43
1689046591.508553,38
1689046591.5585535,25
1689046591.6085534,14
1689046591.6585531,7
1689046591.7085521,4
1689046591.758553,5
1689046591.808557,6
1689046591.858552,6
1689046591.9085586,5
1689046591.9585626,34
1689046592.0085528,77
1689046592.0585523,87
1689046592.1085515,72
1689046592.1445522,55
1689046592.1945517,46
1689046592.2445557,41
1689046592.2945514,44
1689046592.355552,42
1689046592.403552,29
1689046592.4535563,15
1689046592.503552,4
1689046592.5535526,0
1689046592.6035562,0
1689046592.6535556,0
1689046592.7035515,0
1689046592.7555509,0
1689046592.8075511,43
1689046592.8695552,94
1689046592.9195526,93
1689046592.9695547,58
1689046593.019555,50
1689046593.0695505,46
1689046593.1195507,46
1689046593.1525505,46
1689046593.202551,43
1689046593.2525554,37
1689046593.3025541,31
1689046593.3555503,27
1689046593.405555,25
1689046593.4555497,24
1689046593.505554,25
1689046593.5555544,25
1689046593.606552,39
1689046593.6555507,61
1689046593.7055497,69
1689046593.7555494,63
1689046593.8055534,55
1689046593.869553,50
1689046593.9196777,47
1689046593.9696777,48
1689046594.019684,46
1689046594.0696814,42
1689046594.1196766,40
1689046594.152677,38
1689046594.2026777,38
1689046594.2536767,37
1689046594.3036764,36
1689046594.3548598,35
1689046594.4047961,35
1689046594.4547973,48
1689046594.504801,64
1689046594.5547976,65
1689046594.6047957,59
1689046594.6547966,54
1689046594.7048008,51
1689046594.7548232,49
1689046594.8048503,48
1689046594.8548572,45
1689046594.90485,40
1689046594.9548516,36
1689046595.0048547,33
1689046595.0548499,31
1689046595.1048503,30
1689046595.143851,30
1689046595.1908543,29
1689046595.24085,27
1689046595.2908516,25
1689046595.3408504,28
1689046595.3908515,46
1689046595.4408545,65
1689046595.4908493,65
1689046595.5408497,58
1689046595.5908499,52
1689046595.6408534,49
1689046595.6908488,47
1689046595.7408533,46
1689046595.7908487,43
1689046595.8558493,38
1689046595.9048488,32
1689046595.9548514,28
1689046596.0048532,27
1689046596.0558581,26
1689046596.104853,25
1689046596.1438527,23
1689046596.18885,21
1689046596.2388477,19
1689046596.2888484,17
1689046596.3388524,21
1689046596.3908484,49
1689046596.4408522,69
1689046596.4908493,64
1689046596.5408523,52
1689046596.590852,42
1689046596.640852,38
1689046596.6908476,40
1689046596.7408476,42
1689046596.7908475,39
1689046596.8408518,30
1689046596.8908477,22
1689046596.9408467,17
1689046596.9915946,14
1689046597.0412989,12
1689046597.0913048,12
1689046597.1413038,11
1689046597.1753001,10
1689046597.2252996,8
1689046597.2753015,12
1689046597.3252995,42
1689046597.3753035,74
1689046597.4252996,73
1689046597.4753032,58
1689046597.5253086,43
1689046597.5753028,36
1689046597.6253,36
1689046597.675303,40
1689046597.7252986,37
1689046597.7753026,30
1689046597.8252978,22
1689046597.8753023,16
1689046597.9253025,11
1689046597.9753022,8
1689046598.0252995,6
1689046598.0753021,6
1689046598.1252992,21
1689046598.1582983,60
1689046598.2083018,82
1689046598.2583022,84
1689046598.3083022,69
1689046598.3583019,55
1689046598.4083018,46
1689046598.458302,44
1689046598.5083017,46
1689046598.558302,42
1689046598.608297,35
1689046598.6582968,27
1689046598.7083008,22
1689046598.758301,18
1689046598.8082967,16
1689046598.8722973,15
1689046598.922296,23
1689046598.9722965,57
1689046599.0223012,85
1689046599.0722964,80
1689046599.1222966,66
1689046599.1552966,52
1689046599.2113001,43
1689046599.2613006,39
1689046599.311296,36
1689046599.3723001,32
1689046599.4223,24
1689046599.472296,17
1689046599.5222964,11
1689046599.5722964,8
1689046599.6222956,7
1689046599.6723,7
1689046599.7222967,17
1689046599.7722993,53
1689046599.8222952,85
1689046599.886295,80
1689046599.9362993,65
1689046599.9862947,52
1689046600.036299,43
1689046600.0862951,40
1689046600.136294,39
1689046600.1692944,35
1689046600.2196996,31
1689046600.268768,27
1689046600.3187637,19
1689046600.3727634,13
1689046600.4217637,11
1689046600.4717681,14
1689046600.5217645,42
1689046600.5717685,81
1689046600.6217642,90
1689046600.6717672,78
1689046600.7227645,65
1689046600.7717676,58
1689046600.821767,61
1689046600.8857672,67
1689046600.9357665,63
1689046600.9867642,55
1689046601.0357666,45
1689046601.086762,40
1689046601.1357665,37
1689046601.1697624,36
1689046601.2187667,36
1689046601.269766,50
1689046601.3197627,72
1689046601.3717613,76
1689046601.4217618,69
1689046601.4717622,59
1689046601.5217621,52
1689046601.571766,49
1689046601.621761,50
1689046601.6717656,47
1689046601.7217627,41
1689046601.771761,35
1689046601.8217664,30
1689046601.8717656,26
1689046601.9217606,24
1689046601.9717617,22
1689046602.0217605,21
1689046602.0723476,30
1689046602.1218734,54
1689046602.1558747,70
1689046602.205877,68
1689046602.2558727,58
1689046602.305878,48
1689046602.356879,43
1689046602.4058766,44
1689046602.4558737,46
1689046602.5058763,44
1689046602.5558722,38
1689046602.6058729,31
1689046602.6558766,26
1689046602.7058759,23
1689046602.755877,23
1689046602.8058763,23
1689046602.8698714,22
1689046602.919873,35
1689046602.9698758,61
1689046603.0198758,73
1689046603.0698755,68
1689046603.1198711,58
1689046603.1528711,49
1689046603.2108767,46
1689046603.2608714,47
1689046603.3108752,47
1689046603.3698707,41
1689046603.4198723,35
1689046603.4698746,28
1689046603.5198746,23
1689046603.5698748,19
1689046603.6198704,18
1689046603.669875,17
1689046603.719872,17
1689046603.769874,31
1689046603.8198717,57
1689046603.88887,64
1689046603.9388828,53
1689046603.988874,40
1689046604.0388744,31
1689046604.0888696,32
1689046604.1388757,38
1689046604.1738698,37
1689046604.2228699,33
1689046604.2728746,24
1689046604.3228695,17
1689046604.3728697,12
1689046604.4228697,9
1689046604.472873,7
1689046604.5228703,7
1689046604.5728729,23
1689046604.622869,58
1689046604.6728728,76
1689046604.722898,67
1689046604.772897,51
1689046604.822892,39
1689046604.8728921,33
1689046604.922892,34
1689046604.9728966,36
1689046605.0228975,32
1689046605.0728965,26
1689046605.122898,20
1689046605.155897,16
1689046605.2058928,14
1689046605.2558925,13
1689046605.3058963,19
1689046605.3559084,51
1689046605.405908,82
1689046605.4559083,82
1689046605.5059083,69
1689046605.555909,56
1689046605.6059077,47
1689046605.6559079,46
1689046605.7059073,48
1689046605.7565272,44
1689046605.8065288,38
1689046605.856525,30
1689046605.9065285,25
1689046605.9565246,21
1689046606.006528,20
1689046606.0575237,34
1689046606.1075234,63
1689046606.145524,79
1689046606.1895232,76
1689046606.2395275,64
1689046606.289549,56
1689046606.3395538,50
1689046606.3895533,49
1689046606.4395678,49
1689046606.489563,46
1689046606.539577,40
1689046606.5896642,33
1689046606.639753,30
1689046606.6887527,28
1689046606.7390196,28
1689046606.7893672,48
1689046606.8388631,70
1689046606.8889441,74
1689046606.938812,69
1689046606.9888177,61
1689046607.0396163,54
1689046607.088758,50
1689046607.139758,50
1689046607.1737623,48
1689046607.2227614,45
1689046607.2727683,40
1689046607.322763,36
1689046607.3727787,33
1689046607.4231026,32
1689046607.473106,34
1689046607.5228384,47
1689046607.5737462,62
1689046607.6227517,64
1689046607.6727464,59
1689046607.7227523,53
1689046607.7727535,49
1689046607.8227456,48
1689046607.8727508,48
1689046607.922746,46
1689046607.9727528,41
1689046608.0227504,38
1689046608.0727453,34
1689046608.122745,32
1689046608.1557453,31
1689046608.2088773,31
1689046608.2589262,43
1689046608.3089252,58
1689046608.3589253,61
1689046608.4089253,55
1689046608.45893,49
1689046608.5089297,44
1689046608.558925,43
1689046608.6089294,44
1689046608.6589246,41
1689046608.7089238,38
1689046608.758929,33
1689046608.8089254,30
1689046608.8589237,28
1689046608.9089248,27
1689046608.9589243,27
1689046609.0089285,31
1689046609.058924,46
1689046609.108928,60
1689046609.1449287,59
1689046609.1919281,55
1689046609.2419298,48
1689046609.2919238,44
1689046609.3419278,43
1689046609.391928,44
1689046609.4419277,41
1689046609.4919236,37
1689046609.541929,30
1689046609.5919242,24
1689046609.6419227,20
1689046609.6919274,20
1689046609.7419295,22
1689046609.7919233,22
1689046609.8419278,26
1689046609.8919227,43
1689046609.941927,62
1689046609.9919271,62
1689046610.0419269,57
1689046610.0919225,48
1689046610.1419225,42
1689046610.1759262,42
1689046610.2259223,44
1689046610.2759283,42
1689046610.3259263,37
1689046610.3759222,31
1689046610.425926,26
1689046610.4759266,24
1689046610.525926,23
1689046610.5759208,23
1689046610.6259215,22
1689046610.6759226,32
1689046610.725926,53
1689046610.7759213,66
1689046610.8259282,61
1689046610.8759215,52
1689046610.9259212,44
1689046610.975925,42
1689046611.0259254,43
1689046611.0759206,42
1689046611.125925,38
1689046611.1589205,30
1689046611.2089221,26
1689046611.2589245,21
1689046611.308921,18
1689046611.3589203,17
1689046611.4089243,24
1689046611.458925,48
1689046611.5089245,65
1689046611.558924,61
1689046611.60892,50
1689046611.6589222,40
1689046611.7089238,36
1689046611.7589197,38
1689046611.80892,40
1689046611.858919,36
1689046611.9089239,29
1689046611.9589236,23
1689046612.0089197,18
1689046612.058919,16
1689046612.1089234,15
1689046612.1449184,27
1689046612.1929643,35
1689046612.243373,68
1689046612.2933724,69
1689046612.3433738,60
1689046612.3933768,47
1689046612.4433732,41
1689046612.493373,42
1689046612.5433767,44
1689046612.5933723,41
1689046612.6433766,34
1689046612.6933768,27
1689046612.7433717,22
1689046612.7933779,20
1689046612.843372,20
1689046612.893372,25
1689046612.943376,48
1689046612.9933767,71
1689046613.0433767,71
1689046613.0933716,62
1689046613.1433759,53
1689046613.1763709,49
1689046613.2263756,49
1689046613.2763758,51
1689046613.3263714,49
1689046613.3763754,43
1689046613.4263709,37
1689046613.476388,32
1689046613.5263834,29
1689046613.576388,29
1689046613.6263876,29
1689046613.676397,38
1689046613.726401,58
1689046613.776401,69
1689046613.826397,64
1689046613.8763962,55
1689046613.9263964,48
1689046613.97584,45
1689046614.025854,46
1689046614.0758543,45
1689046614.125854,41
1689046614.1588538,35
1689046614.2148542,32
1689046614.264854,27
1689046614.3148532,25
1689046614.3728538,25
1689046614.4228535,27
1689046614.4728534,34
1689046614.5228536,52
1689046614.5728536,65
1689046614.6228533,62
1689046614.672853,52
1689046614.7228532,43
